,testloss,testacc,trainloss,trainacc
0,0.6928935313224792,0.5044479966163635,0.6928760809898377,0.5060210227966309
1,0.6928422055244445,0.5049560070037842,0.6928141050338745,0.5070310235023499
2,0.6928724904060364,0.5035560131072998,0.6928228154182434,0.5067530274391174
3,0.6928690748214722,0.5043960213661194,0.6928439946174622,0.5064830183982849
4,0.6928848738670349,0.5042120218276978,0.6928334465026855,0.5064049959182739
5,0.6928613739013672,0.5045560002326965,0.692836859703064,0.5063629746437073
6,0.6928900055885315,0.5045179724693298,0.6928315148353577,0.5070689916610718
7,0.6928656120300293,0.5041959881782532,0.6928445243835449,0.5060870051383972
8,0.6928494696617127,0.504967987537384,0.69282586145401,0.5074470043182373
9,0.6928878746032715,0.5046079754829407,0.6928323521614075,0.5063930153846741
10,0.6928734803199768,0.5050280094146729,0.6928568000793457,0.5058469772338867
11,0.6928612546920776,0.5047799944877625,0.6928423824310302,0.5055750012397766
12,0.6928416509628296,0.5049039721488953,0.6928461542129517,0.5055570006370544
13,0.6928579521179199,0.5044159889221191,0.6928311839103699,0.506829023361206
14,0.6929274954795838,0.5036879777908325,0.6928973202705383,0.5058670043945312
15,0.6929361672401428,0.5041880011558533,0.6928898377418518,0.5055209994316101
16,0.692866247177124,0.5046520233154297,0.6928461165428161,0.5059469938278198
17,0.6929404006004334,0.5048120021820068,0.6929686827659607,0.505171000957489
18,0.6928668723106385,0.5048239827156067,0.6928372068405151,0.5059159994125366
19,0.6928706126213073,0.5048320293426514,0.6928366737365723,0.5064110159873962
20,0.6929132809638977,0.5032719969749451,0.6928781642913818,0.505640983581543
21,0.6930348281860351,0.5034409761428833,0.6929911561012269,0.5048019886016846
22,0.6928600726127625,0.5042319893836975,0.692834171295166,0.5062649846076965
23,0.692886637210846,0.5046640038490295,0.6928468441963196,0.5060399770736694
24,0.6928912205696106,0.5040159821510315,0.692828082561493,0.5065370202064514
25,0.6928710174560547,0.5048800110816956,0.6928493571281433,0.5059409737586975
26,0.6928783226013183,0.5042440295219421,0.692852731704712,0.5057529807090759
27,0.6947474656105042,0.5013160109519958,0.6943238492012024,0.5038220286369324
28,0.6928732771873474,0.5052599906921387,0.6928507714271546,0.506039023399353
29,0.6928856868743897,0.504476010799408,0.692820806980133,0.5068129897117615
30,0.6928768711090088,0.5050399899482727,0.6928617935180664,0.5060309767723083
31,0.692893630027771,0.5044959783554077,0.6928248739242554,0.5063859820365906
32,0.6928633284568787,0.5045880079269409,0.6928306484222412,0.5064089894294739
33,0.6928725504875183,0.5048080086708069,0.6928291711807251,0.5061609745025635
34,0.6928587489128113,0.5056880116462708,0.6928442597389222,0.5061590075492859
35,0.6928566489219665,0.504580020904541,0.6928284654617309,0.5069530010223389
36,0.6928694343566895,0.5054380297660828,0.6928510861396789,0.5052890181541443
37,0.6929114184379578,0.5043320059776306,0.6928465995788574,0.5064110159873962
38,0.6939112458229065,0.5030969977378845,0.6938043537139893,0.5039684772491455
39,0.6928965263366699,0.504971981048584,0.692832896232605,0.5068449974060059
40,0.6939540491104126,0.5035229921340942,0.693857497215271,0.5034134984016418
41,0.6959582872390747,0.5026170015335083,0.695648184299469,0.5030080080032349
42,0.6928709058761596,0.5052440166473389,0.692856662273407,0.505840003490448
43,0.6928703799247742,0.5051040053367615,0.6928485808372498,0.5067769885063171
44,0.6928778572082519,0.5050280094146729,0.6928387851715088,0.5062549710273743
45,0.6928829383850098,0.5038679838180542,0.6928257036209107,0.5060449838638306
46,0.6928578510284423,0.5054879784584045,0.6928129425048828,0.5067229866981506
47,0.6928506560325622,0.5042279958724976,0.6928264698982238,0.5065829753875732
48,0.6928899536132812,0.5038840174674988,0.6928604574203491,0.5055909752845764
49,0.6928504195213318,0.5055040121078491,0.692846305847168,0.505774974822998
50,0.6929986696243287,0.5046659708023071,0.6930004591941834,0.5052809715270996
51,0.6928857808113098,0.503495991230011,0.692830762386322,0.5063729882240295
52,0.6928941454887391,0.5037999749183655,0.6928627185821533,0.5054649710655212
53,0.6928406014442444,0.5048360228538513,0.6928322353363037,0.5062990188598633
54,0.6976752800941467,0.5030900239944458,0.6972078490257263,0.5035855174064636
55,0.6928373908996582,0.5056279897689819,0.6928451342582702,0.5058109760284424
56,0.6929026279449463,0.5036799907684326,0.6928404860496521,0.5057229995727539
57,0.692894546508789,0.5042679905891418,0.6928593740463257,0.5061330199241638
58,0.6929076676368713,0.504148006439209,0.6928336424827576,0.5064569711685181
59,0.6930788459777832,0.5049620270729065,0.6930365996360779,0.5051699876785278
60,0.692853003501892,0.5046200156211853,0.6928349151611328,0.5061410069465637
61,0.6936124167442321,0.5046700239181519,0.6928624296188355,0.5062450170516968
62,0.6929865307807922,0.5046160221099854,0.6929490633010864,0.5057370066642761
63,0.6932470593452453,0.504177987575531,0.693152687549591,0.5049459934234619
64,0.6928551187515258,0.5059159994125366,0.6928357586860657,0.5066549777984619
65,0.6928997855186463,0.5042639970779419,0.6928383545875549,0.5063430070877075
66,0.6928920011520385,0.5044839978218079,0.6928375186920166,0.5066090226173401
67,0.6929097485542297,0.5036759972572327,0.6928463745117187,0.5062749981880188
68,0.6929657521247864,0.5038999915122986,0.6929457364082336,0.5048230290412903
69,0.6931329164505005,0.5038400292396545,0.6930589323043823,0.5048499703407288
70,0.6928721990585327,0.5049239993095398,0.6928275961875916,0.5061730146408081
71,0.6928932089805603,0.5044879913330078,0.692844096660614,0.5056589841842651
72,0.6928761749267578,0.5043759942054749,0.6928392643928528,0.5061230063438416
73,0.6928557047843933,0.5056880116462708,0.6928706793785095,0.5048549771308899
74,0.6928832850456238,0.5042840242385864,0.6928679423332215,0.5057870149612427
75,0.6928630847930908,0.5045719742774963,0.6928282408714295,0.5066369771957397
76,0.6928831391334533,0.5039759874343872,0.6928350386619568,0.5061450004577637
77,0.6928880257606507,0.504692018032074,0.6928453321456909,0.505774974822998
78,0.6928950281143188,0.504688024520874,0.6928441429138184,0.5062050223350525
79,0.6928933916091919,0.505079984664917,0.6928146820068359,0.5065109729766846
80,0.6928711562156677,0.5053640007972717,0.6928396310806274,0.5057309865951538
81,0.6928810143470764,0.5048879981040955,0.6928491458892823,0.5056250095367432
82,0.6928749895095825,0.504800021648407,0.6928465156555176,0.506181001663208
83,0.6928797626495361,0.505236029624939,0.6928538928031921,0.5058310031890869
84,0.6928704700469971,0.5040839910507202,0.6928485379219055,0.5056769847869873
85,0.6931473174095154,0.5041639804840088,0.693039520740509,0.5049530267715454
86,0.6928867177963257,0.504692018032074,0.692836272239685,0.5059409737586975
87,0.6928557753562927,0.5056639909744263,0.6928263311386108,0.5062689781188965
88,0.692848792552948,0.5048919916152954,0.6928531146049499,0.5061489939689636
89,0.6928735694885254,0.5041279792785645,0.6928351955413818,0.5055310130119324
90,0.6928933358192444,0.5044639706611633,0.6928368549346924,0.5061330199241638
91,0.6928604397773742,0.5057680010795593,0.6928306074142456,0.5068190097808838
92,0.6928718762397766,0.5044519901275635,0.6928325567245484,0.5061870217323303
93,0.6928965134620666,0.503275990486145,0.6928593549728393,0.5059009790420532
94,0.6928639421463013,0.5047799944877625,0.6928432397842407,0.5059750080108643
95,0.6928681359291077,0.5042279958724976,0.6928323330879211,0.5063430070877075
96,0.6938164887428284,0.5062659978866577,0.6928480854034423,0.5063790082931519
97,0.6928544759750366,0.5049880146980286,0.6928315439224243,0.505715012550354
98,0.6928749637603759,0.5052199959754944,0.6928460783958436,0.5056509971618652
99,0.692875898361206,0.5045560002326965,0.6928296580314636,0.5061269998550415
100,0.6928639478683472,0.5045679807662964,0.6928428912162781,0.5064110159873962
101,0.6928835339546203,0.5043879747390747,0.6928506736755371,0.5060070157051086
102,0.692863226890564,0.5048519968986511,0.6928362669944763,0.5065569877624512
103,0.6928889575004578,0.5046319961547852,0.6928429055213928,0.5062509775161743
104,0.6928737277984619,0.5041400194168091,0.6928306298255921,0.505856990814209
105,0.6928962483406067,0.5041000247001648,0.6928594675064087,0.5051550269126892
106,0.6928714303970337,0.5049759745597839,0.6928406085968017,0.5061489939689636
107,0.6928620362281799,0.5052599906921387,0.6928432970046997,0.5061330199241638
108,0.6928583855628967,0.5057600140571594,0.6928521976470947,0.5052070021629333
109,0.6928738222122193,0.5043759942054749,0.6928328313827514,0.5066750049591064
110,0.6928407196998596,0.5055440068244934,0.6928441100120545,0.5057049989700317
111,0.6928809428215027,0.5038719773292542,0.692837450504303,0.5062410235404968
112,0.6928799619674683,0.5046399831771851,0.6928415803909301,0.5064370036125183
113,0.6928866019248963,0.5049759745597839,0.6928409352302551,0.5059810280799866
114,0.6929312238693237,0.5050420165061951,0.6928351612091065,0.5064150094985962
115,0.6928809022903443,0.5056319832801819,0.692846860408783,0.5056930184364319
116,0.6928744888305665,0.5052760243415833,0.6928261585235596,0.506542980670929
117,0.6928563585281372,0.5053520202636719,0.6928491911888123,0.5058109760284424
118,0.6929306516647339,0.5038440227508545,0.6928186764717102,0.506676971912384
119,0.6929397692680359,0.5038719773292542,0.6928612360954285,0.5054590106010437
120,0.6928705673217773,0.5048279762268066,0.6928496160507203,0.505312979221344
121,0.6929134635925293,0.5045779943466187,0.692826277256012,0.5067489743232727
122,0.692860303401947,0.5049560070037842,0.6928417024612427,0.5059210062026978
123,0.6928880324363709,0.5038279891014099,0.6928485064506531,0.505961000919342
124,0.6929132828712463,0.5041279792785645,0.6928432183265686,0.5064849853515625
125,0.6928700098991394,0.5044959783554077,0.6928457660675049,0.505823016166687
126,0.6929939002990723,0.5041620135307312,0.6928394603729248,0.5061709880828857
127,0.6928976554870605,0.5042939782142639,0.6928202848434448,0.5064430236816406
128,0.6929027428627014,0.5041519999504089,0.6928253951072693,0.5070070028305054
129,0.6928562436103821,0.5056319832801819,0.692851137638092,0.5057129859924316
130,0.692871425151825,0.504755973815918,0.6928318586349488,0.5059509873390198
131,0.6928874354362488,0.5041120052337646,0.6928405342102051,0.505744993686676
132,0.6929851431846619,0.5046939849853516,0.6928595676422119,0.5053830146789551
133,0.6928461332321167,0.5046120285987854,0.6928296847343445,0.5059909820556641
134,0.6929406671524048,0.503898024559021,0.6928331270217896,0.5062530040740967
135,0.6930502314567566,0.5039780139923096,0.692873694896698,0.5051010251045227
136,0.6928941512107849,0.5060679912567139,0.6928489327430725,0.5054389834403992
137,0.6928703231811524,0.5043020248413086,0.6928617181777954,0.5058050155639648
138,0.6928669366836547,0.5058839917182922,0.6928397030830383,0.506069004535675
139,0.6928636994361878,0.5047799944877625,0.6928454389572144,0.5064849853515625
140,0.6928930411338806,0.5043280124664307,0.6928397274017334,0.5055530071258545
141,0.6930784864425659,0.5042240023612976,0.6928602108955383,0.5059769749641418
142,0.6928837795257569,0.5033959746360779,0.6928192458152771,0.5067470073699951
143,0.692892343044281,0.5036200284957886,0.6928441104888916,0.5065169930458069
144,0.6928720045089721,0.5049120187759399,0.6928458285331726,0.5057389736175537
145,0.6930766162872315,0.5040959715843201,0.6928510842323303,0.5061110258102417
146,0.6929124870300293,0.5034239888191223,0.6928422155380249,0.5062749981880188
147,0.6928767709732055,0.5036600232124329,0.6928364548683167,0.5069130063056946
148,0.6929012737274169,0.5039240121841431,0.6928515071868897,0.5064389705657959
149,0.6928733305931092,0.5058040022850037,0.6928449711799621,0.5056009888648987
150,0.6929839582443237,0.5048940181732178,0.6928557286262512,0.5050470232963562
151,0.6929277806282044,0.5054380297660828,0.6928436956405639,0.5062649846076965
152,0.6928927283287049,0.5044040083885193,0.6928388657569885,0.5064169764518738
153,0.6928707780838013,0.5048840045928955,0.6928305139541626,0.5059930086135864
154,0.6935140280723572,0.5038020014762878,0.6928540444374085,0.5059289932250977
155,0.6929534134864808,0.5042340159416199,0.6928318262100219,0.5069209933280945
156,0.6928654074668884,0.5051000118255615,0.6928512001037598,0.5062130093574524
157,0.6928766522407531,0.5044000148773193,0.6928426246643067,0.5062209963798523
158,0.693083297252655,0.5043399930000305,0.6928392133712769,0.5065950155258179
159,0.6928725519180298,0.5057359933853149,0.6928443412780761,0.5065630078315735
160,0.6928995933532714,0.5042120218276978,0.6928332762718201,0.5062649846076965
161,0.6928434309959411,0.5055279731750488,0.6928387799263,0.5060790181159973
162,0.6928486423492431,0.5053719878196716,0.6928262395858764,0.5066810250282288
163,0.6928868150711059,0.5042240023612976,0.692831910610199,0.505856990814209
164,0.6928842821121216,0.5041919946670532,0.6928321557044983,0.5063729882240295
165,0.6928556308746338,0.5052239894866943,0.6928432002067566,0.5059530138969421
166,0.6928801259994507,0.5050280094146729,0.6928323431015014,0.5063329935073853
167,0.6928770332336426,0.5037000179290771,0.6928268055915833,0.5061249732971191
168,0.6928903203010559,0.5048400163650513,0.692846043586731,0.5061770081520081
169,0.6928787531852723,0.5045679807662964,0.692831383228302,0.5058069825172424
170,0.6928759245872498,0.5039439797401428,0.6928376803398132,0.5064669847488403
171,0.6928822722434997,0.5043439865112305,0.6928334770202637,0.506538987159729
172,0.6928741164207458,0.5035960078239441,0.6928375000953675,0.5059769749641418
173,0.6928587341308594,0.5047159790992737,0.6928327131271362,0.5065670013427734
174,0.6928836688995361,0.5044080018997192,0.6928468551635742,0.5057290196418762
175,0.692886242389679,0.5053039789199829,0.6928322458267212,0.5060349702835083
176,0.6928907341957092,0.5039520263671875,0.6928431987762451,0.5065649747848511
177,0.6928721075057983,0.5049920082092285,0.6928324313163757,0.5063329935073853
178,0.6928824634552002,0.5041000247001648,0.692835081577301,0.5065209865570068
179,0.6928538885116577,0.5046399831771851,0.6928456115722657,0.5059729814529419
180,0.6928744597434997,0.504688024520874,0.6928374934196472,0.5061609745025635
181,0.6929011263847351,0.504040002822876,0.6928405976295471,0.506426990032196
182,0.6928952565193176,0.5042920112609863,0.6928258886337281,0.5064709782600403
183,0.6928806381225586,0.5042960047721863,0.6928477621078492,0.5060970187187195
184,0.6928575644493103,0.5056440234184265,0.6928530859947205,0.5057730078697205
185,0.6929475293159485,0.505403995513916,0.6928428373336792,0.5063729882240295
186,0.6928685193061829,0.5046560168266296,0.6928404107093811,0.5065609812736511
187,0.6928564953804016,0.505623996257782,0.6928504433631897,0.5057370066642761
188,0.6929614973068238,0.5052980184555054,0.6928263812065124,0.5066069960594177
189,0.6930424633026123,0.5051980018615723,0.6928409113883972,0.5054669976234436
190,0.6928482027053833,0.5047640204429626,0.6928375988006592,0.5065370202064514
191,0.6928565535545349,0.5057479739189148,0.6928391027450561,0.5061190128326416
192,0.6928561382293701,0.5051199793815613,0.6928674697875976,0.5051890015602112
193,0.6928838028907776,0.5039439797401428,0.6928438711166381,0.5057629942893982
194,0.6928767304420471,0.5046600103378296,0.6928414249420166,0.5062749981880188
195,0.6928822212219238,0.5035920143127441,0.6928369202613831,0.5066230297088623
196,0.6928963556289672,0.5047720074653625,0.6928471527099609,0.5060750246047974
197,0.6928766651153564,0.5045760273933411,0.692838864326477,0.5062909722328186
198,0.6928889131546021,0.5044519901275635,0.6928480162620544,0.5058749914169312
199,0.6928717164993287,0.5034279823303223,0.6928242797851563,0.5068650245666504
200,0.6928611464500427,0.5049600005149841,0.6928412122726441,0.5065010190010071
201,0.6930948243141174,0.5044620037078857,0.6928561305999756,0.5054810047149658
202,0.6928908963203431,0.5034840106964111,0.6928178062438964,0.5069370269775391
203,0.6928643589019775,0.5046759843826294,0.6928491659164429,0.5056229829788208
204,0.6928644270896912,0.5049440264701843,0.6928346366882324,0.5060570240020752
205,0.6928570017814636,0.5051519870758057,0.6928346366882324,0.5057809948921204
206,0.6928651161193847,0.5050960183143616,0.692827009677887,0.5070589780807495
207,0.6930955739021302,0.5050839781761169,0.6928450837135315,0.5066729784011841
208,0.6928744492530823,0.5047199726104736,0.6928389749526978,0.5060129761695862
209,0.6928731532096862,0.5045719742774963,0.6928345971107482,0.5056130290031433
210,0.6930466203689575,0.5053219795227051,0.6928384275436401,0.5058450102806091
211,0.6928574838638306,0.5055519938468933,0.6928217926025391,0.5067089796066284
212,0.6930727958679199,0.5050439834594727,0.692842469215393,0.5063089728355408
213,0.6928946475982666,0.5030080080032349,0.692832272529602,0.506509006023407
214,0.6928793540000916,0.5044040083885193,0.6928304533958435,0.5064650177955627
215,0.6928312444686889,0.5060920119285583,0.692839038848877,0.506318986415863
216,0.6928599410057068,0.5035039782524109,0.6928446593284607,0.506505012512207
217,0.6928852624893188,0.5051159858703613,0.6928271865844726,0.506725013256073
218,0.6928908562660218,0.5041679739952087,0.6928414793014527,0.5059930086135864
219,0.6930241565704346,0.5044440031051636,0.6928485717773437,0.5059750080108643
220,0.6928491768836975,0.5051360130310059,0.6928406171798706,0.5059469938278198
221,0.6928764295578003,0.5047000050544739,0.6928424129486084,0.5057929754257202
222,0.6928807878494263,0.5048120021820068,0.6928513708114624,0.5061309933662415
223,0.6928754935264587,0.5048879981040955,0.6928412799835205,0.5056329965591431
224,0.6928791656494141,0.5052080154418945,0.6928202352523803,0.5067949891090393
225,0.6928696331977844,0.5044000148773193,0.6928495697975159,0.5056989789009094
226,0.6928528556823731,0.5049359798431396,0.6928320188522339,0.5065230131149292
227,0.6928964738845825,0.5042600035667419,0.6928340759277344,0.5062869787216187
228,0.6929555997848511,0.5051519870758057,0.6928107852935791,0.5068389773368835
229,0.6928879261016846,0.5043280124664307,0.6928300933837891,0.5067350268363953
230,0.6930002584457398,0.5040979981422424,0.6928410649299621,0.504984974861145
231,0.6928733930587768,0.5051159858703613,0.6928666200637817,0.5063310265541077
232,0.692870876789093,0.5044199824333191,0.692838535785675,0.5063470005989075
233,0.6928949198722839,0.5040119886398315,0.6928368110656739,0.5071030259132385
234,0.6928738384246826,0.5049759745597839,0.6928308410644531,0.5064910054206848
235,0.6929214563369751,0.5033040046691895,0.6928365769386291,0.5063130259513855
236,0.6928682174682618,0.5041519999504089,0.6928579263687134,0.505279004573822
237,0.6928691053390503,0.5042999982833862,0.6928231930732727,0.5062990188598633
238,0.6928836703300476,0.5047839879989624,0.6928420648574829,0.5054010152816772
239,0.6928474478721619,0.5052599906921387,0.6928265705108643,0.5059509873390198
240,0.6928627924919128,0.505623996257782,0.692831636428833,0.5059409737586975
241,0.6928948607444764,0.5038959980010986,0.6928439784049988,0.5058630108833313
242,0.6928859796524048,0.5042440295219421,0.6928414821624755,0.5063750147819519
243,0.6929263348579406,0.5039439797401428,0.6928367981910706,0.5061929821968079
244,0.6928530526161194,0.5049999952316284,0.6928157415390015,0.5067510008811951
245,0.6928624992370606,0.5058280229568481,0.6928167958259582,0.5066630244255066
246,0.6928800506591797,0.505403995513916,0.6928443059921264,0.5059970021247864
247,0.692859974861145,0.5046079754829407,0.692835729598999,0.5062069892883301
248,0.6928714919090271,0.5042999982833862,0.6928277015686035,0.5065289735794067
249,0.6928751153945922,0.5050519704818726,0.6928383150100708,0.5054770112037659
250,0.6928801689147949,0.50519198179245,0.6928533673286438,0.5058550238609314
251,0.692859603881836,0.5054720044136047,0.6928469696044922,0.5058929920196533
252,0.6928793792724609,0.504796028137207,0.6928171281814575,0.5070189833641052
253,0.6929223222732543,0.5020560026168823,0.6928512806892395,0.5063490271568298
254,0.6928639869689941,0.5050600171089172,0.6928394556045532,0.5060970187187195
255,0.6929028725624085,0.5037279725074768,0.6928417334556579,0.5062569975852966
256,0.6928807797431946,0.5043519735336304,0.6928621740341186,0.5057250261306763
257,0.6928981347084046,0.5046799778938293,0.6928460731506347,0.5058990120887756
258,0.692879840373993,0.5053719878196716,0.6928504099845886,0.5065590143203735
259,0.6928939085006713,0.5038400292396545,0.69285910654068,0.5059249997138977
260,0.6928779892921447,0.5042120218276978,0.6928541479110718,0.5055630207061768
261,0.6928613286018371,0.5056759715080261,0.6928440856933594,0.5062329769134521
262,0.6928915104866028,0.5045040249824524,0.6928733372688294,0.5056930184364319
263,0.6928618130683899,0.5048519968986511,0.6928362855911255,0.5060930252075195
264,0.6928612580299377,0.5046560168266296,0.6928365445137024,0.5062549710273743
265,0.6928542222976685,0.5057719945907593,0.6928310842514038,0.5058130025863647
266,0.692873971939087,0.5033760070800781,0.6928426628112793,0.50552898645401
267,0.6928547587394714,0.5047399997711182,0.6928568382263184,0.5062609910964966
268,0.692877736568451,0.5051159858703613,0.6928475384712219,0.5060930252075195
269,0.69286700963974,0.504688024520874,0.6928490104675293,0.5056430101394653
270,0.6928769564628601,0.5040159821510315,0.6928259592056274,0.5066210031509399
271,0.6928642868995667,0.5047680139541626,0.6928478360176087,0.505715012550354
272,0.6928846178054809,0.5036560297012329,0.6928334646224975,0.5061630010604858
273,0.6928656787872315,0.5059199929237366,0.6928603157997132,0.5064210295677185
274,0.692891520023346,0.5034199953079224,0.692839753627777,0.5060930252075195
275,0.6928725385665894,0.5056599974632263,0.6928274965286255,0.5064949989318848
276,0.6928454279899597,0.5061399936676025,0.6928447194099426,0.5060529708862305
277,0.6928730611801147,0.5044400095939636,0.6928417887687683,0.5066009759902954
278,0.6928935770988465,0.5050680041313171,0.6928507161140441,0.5057510137557983
279,0.6928765125274658,0.5040640234947205,0.6928383207321167,0.5060989856719971
280,0.6928780632019043,0.5038480162620544,0.6928430471420288,0.5059990286827087
281,0.6928765473365783,0.5038959980010986,0.6928442740440368,0.5060269832611084
282,0.6928751697540283,0.5043960213661194,0.6928325977325439,0.506289005279541
283,0.6928590846061706,0.504368007183075,0.6928461055755615,0.5058649778366089
284,0.6928712606430054,0.5047680139541626,0.6928183178901672,0.5060709714889526
285,0.6928709936141968,0.5045080184936523,0.692839494228363,0.5058929920196533
286,0.6928904724121093,0.5044119954109192,0.6928415932655334,0.5061569809913635
287,0.6928546595573425,0.5051959753036499,0.6928300223350525,0.5059769749641418
288,0.6928650097846984,0.5042960047721863,0.6928556346893311,0.5061290264129639
289,0.6928622584342956,0.504584014415741,0.6928654103279114,0.5049790143966675
290,0.6928630442619323,0.5049480199813843,0.6928374848365784,0.5064769983291626
291,0.6928984608650207,0.5043920278549194,0.6928283548355103,0.5062710046768188
292,0.6928661451339722,0.5048360228538513,0.6928355922698974,0.506072998046875
293,0.6928774185180664,0.5053719878196716,0.6928408007621765,0.5064389705657959
294,0.692877351284027,0.5046640038490295,0.6928578586578369,0.5057510137557983
295,0.6928937683105468,0.5042480230331421,0.6928286776542664,0.5061889886856079
296,0.6928698968887329,0.5046560168266296,0.6928341479301453,0.5060549974441528
297,0.6928773803710937,0.5048360228538513,0.6928189258575439,0.5068169832229614
298,0.6928679914474487,0.506488025188446,0.6928456506729126,0.5058850049972534
299,0.6928791065216064,0.504755973815918,0.6928454666137696,0.5063470005989075
300,0.6928819460868836,0.5039439797401428,0.6928313641548157,0.5065109729766846
301,0.692885980129242,0.5047439932823181,0.6928342342376709,0.5063130259513855
302,0.6929117417335511,0.5037199854850769,0.6928310813903809,0.5064190030097961
303,0.6928636264801026,0.5040519833564758,0.6928341264724731,0.5057849884033203
304,0.6928880214691162,0.5043879747390747,0.6928593220710755,0.505391001701355
305,0.6928925828933716,0.5042799711227417,0.6928338112831116,0.5062289834022522
306,0.6928775668144226,0.5048199892044067,0.692846284866333,0.5060669779777527
307,0.6928551421165466,0.5059620141983032,0.6928561134338379,0.5057644844055176
308,0.6928661317825318,0.5047720074653625,0.6928648862838745,0.5061730146408081
309,0.6928798060417175,0.5039200186729431,0.6928367443084716,0.5060409903526306
310,0.6928832635879517,0.5041040182113647,0.6928352675437928,0.5068609714508057
311,0.6928749566078186,0.504692018032074,0.6928487906455993,0.5064070224761963
312,0.6928817744255066,0.5041679739952087,0.6928516855239868,0.5056350231170654
313,0.6928655915260314,0.5047600269317627,0.6928537702560424,0.5053349733352661
314,0.6928800439834595,0.5047919750213623,0.6928376293182373,0.5065029859542847
315,0.6928425598144531,0.5048519968986511,0.6928342752456665,0.5070289969444275
316,0.692877188205719,0.5043240189552307,0.6928437280654908,0.5058950185775757
317,0.6928751235008239,0.5049840211868286,0.692810101032257,0.5060250163078308
318,0.6928632745742798,0.5046319961547852,0.6928295583724976,0.5063790082931519
319,0.6928751492500305,0.5046240091323853,0.6928250803947449,0.5064070224761963
320,0.6928793106079102,0.5042799711227417,0.6928342514038086,0.5059390068054199
321,0.6928772702217102,0.5045279860496521,0.6928535447120666,0.5059030055999756
322,0.6928410196304321,0.5054200291633606,0.6928255610466003,0.5068650245666504
323,0.6928515396118164,0.5043119788169861,0.6928397855758667,0.5056549906730652
324,0.6928600354194641,0.5049800276756287,0.6928283681869507,0.5068950057029724
325,0.6929004993438721,0.5038959980010986,0.6928535733222961,0.5054069757461548
326,0.6928558177947998,0.5044639706611633,0.6928399896621704,0.5060830116271973
327,0.6928955855369567,0.5033479928970337,0.692839063167572,0.5062569975852966
328,0.6928816118240356,0.5052279829978943,0.6928493213653565,0.5058850049972534
329,0.6928461818695069,0.5061399936676025,0.6928534259796143,0.5069649815559387
330,0.6928721170425415,0.504364013671875,0.6928369760513305,0.506505012512207
331,0.6928514461517334,0.5051680207252502,0.6928441753387451,0.5055230259895325
332,0.6928597521781922,0.5052080154418945,0.6928479495048523,0.5065069794654846
333,0.692864287853241,0.5047159790992737,0.6928226909637452,0.506426990032196
334,0.6928622093200684,0.505299985408783,0.6928398895263672,0.5060989856719971
335,0.6929026775360108,0.5031319856643677,0.6928288102149963,0.5058850049972534
336,0.6928875546455383,0.504315972328186,0.6928387470245362,0.5061830282211304
337,0.6929025754928589,0.5035200119018555,0.6928504481315613,0.5059930086135864
338,0.6928911514282227,0.5036399960517883,0.6928432035446167,0.5061089992523193
339,0.6929189391136169,0.5039600133895874,0.6928343024253846,0.5060949921607971
340,0.6928911695480346,0.5044879913330078,0.6928467326164246,0.5056489706039429
341,0.6928581800460816,0.5044159889221191,0.6928381071090698,0.506721019744873
342,0.6928728861808777,0.5053520202636719,0.6928431606292724,0.5061010122299194
343,0.6928906512260437,0.5046719908714294,0.6928557462692261,0.5061630010604858
344,0.6928936114311218,0.5041519999504089,0.6928369126319885,0.5071269869804382
345,0.6928952045440674,0.5042399764060974,0.6928362307548523,0.5063650012016296
346,0.6928588643074035,0.5040680170059204,0.6928311815261841,0.5070469975471497
347,0.6928907465934754,0.5036799907684326,0.692844557762146,0.5061489939689636
348,0.6928698611259461,0.5060039758682251,0.6928318982124329,0.5068309903144836
349,0.6929049382209778,0.5036240220069885,0.6928598399162292,0.5055350065231323
350,0.6928982968330384,0.5039640069007874,0.6928433260917664,0.5063689947128296
351,0.692883587360382,0.504643976688385,0.6928195586204529,0.506401002407074
352,0.6928599438667298,0.5049319863319397,0.6928440308570862,0.5064889788627625
353,0.692867139339447,0.5051479935646057,0.6928444991111755,0.5060909986495972
354,0.6928528599739074,0.5050600171089172,0.6928434891700744,0.5060030221939087
355,0.6928514385223389,0.5044519901275635,0.6928613386154174,0.5051789879798889
356,0.6928721809387207,0.5056719779968262,0.6928301968574524,0.5064370036125183
357,0.6928765969276428,0.504315972328186,0.6928319964408874,0.5063790082931519
358,0.6928692479133606,0.5047199726104736,0.6928435788154602,0.5065749883651733
359,0.692881323814392,0.5040640234947205,0.6928300547599793,0.5066030025482178
360,0.6928865551948548,0.5035399794578552,0.692848530292511,0.5066109895706177
361,0.6929026322364807,0.5043280124664307,0.6928595566749572,0.5050950050354004
362,0.6928426380157471,0.5061360001564026,0.6928349838256836,0.5060189962387085
363,0.69284805393219,0.5054439902305603,0.6928221807479858,0.5062770247459412
364,0.6928745150566101,0.5047680139541626,0.6928297505378723,0.506754994392395
365,0.6928577809333801,0.5032439827919006,0.6928476061820984,0.5064650177955627
366,0.6928948726654053,0.5033760070800781,0.692843987941742,0.506371021270752
367,0.6928665843009949,0.505840003490448,0.6928250761032104,0.505961000919342
368,0.692897409439087,0.5053799748420715,0.6928494153022766,0.5054910182952881
369,0.6928992180824279,0.5049560070037842,0.6928471956253052,0.5060570240020752
370,0.6928600091934204,0.5055040121078491,0.6928580470085144,0.5049489736557007
371,0.6928661251068116,0.5051159858703613,0.6928336524963379,0.5058709979057312
372,0.6928747148513794,0.5043479800224304,0.6928283815383911,0.5069530010223389
373,0.6928649640083313,0.5049920082092285,0.6928415155410766,0.5060949921607971
374,0.6928763575553895,0.5055199861526489,0.6928544721603394,0.5060189962387085
375,0.6928835091590881,0.504647970199585,0.6928186573982239,0.5067129731178284
376,0.6929080848693847,0.5049639940261841,0.6928308725357055,0.5068830251693726
377,0.6928867197036743,0.5049639940261841,0.6928631749153137,0.5054870247840881
378,0.6928876366615295,0.5047720074653625,0.6928550481796265,0.5057470202445984
379,0.6928951416015625,0.5036159753799438,0.6928344140052796,0.5064110159873962
380,0.6929226989746093,0.5036159753799438,0.6928563494682312,0.5062130093574524
381,0.6928738493919373,0.5050839781761169,0.6928145160675049,0.5069010257720947
382,0.6928557643890381,0.5049880146980286,0.692830584526062,0.5066069960594177
383,0.6928848719596863,0.5042120218276978,0.6928477969169616,0.5062850117683411
384,0.6928510570526123,0.505511999130249,0.6928421440124511,0.5062710046768188
385,0.692879951953888,0.5044879913330078,0.692833477973938,0.5058370232582092
386,0.6928616337776184,0.5051760077476501,0.6928425350189209,0.5062230229377747
387,0.6928866262435913,0.5044800043106079,0.6928295640945434,0.5069850087165833
388,0.6928657131195068,0.5054799914360046,0.6928371605873108,0.5061190128326416
389,0.6928804183006286,0.5050439834594727,0.6928338084220886,0.5065310001373291
390,0.6928992156982422,0.5036720037460327,0.6928515033721924,0.5059469938278198
391,0.6928637681007386,0.5046319961547852,0.6928285942077637,0.5060650110244751
392,0.6928630928993225,0.5056599974632263,0.6928455486297608,0.5064769983291626
393,0.6928699593544007,0.5049480199813843,0.6928399109840393,0.5058469772338867
394,0.6928937640190125,0.5042759776115417,0.6928601408004761,0.5062050223350525
395,0.6928762335777283,0.5047439932823181,0.692837954044342,0.5064190030097961
396,0.6929006567001342,0.5037879943847656,0.6928459739685059,0.5056290030479431
397,0.6928841605186462,0.5048239827156067,0.6928445906639099,0.5056689977645874
398,0.6928862504959107,0.5046759843826294,0.6928450164794921,0.5060930252075195
399,0.6929010667800903,0.504252016544342,0.6928420715332031,0.505640983581543
400,0.692860463142395,0.504755973815918,0.692843035697937,0.5059869885444641
401,0.6928689789772033,0.5047479867935181,0.6928501553535461,0.506069004535675
402,0.6928578624725342,0.5052080154418945,0.6928558235168457,0.5055469870567322
403,0.6929031162261963,0.5047360062599182,0.6928135480880737,0.506725013256073
404,0.6928702597618103,0.5040839910507202,0.6928526091575623,0.5058150291442871
405,0.6928898291587829,0.504796028137207,0.6928394079208374,0.5057349801063538
406,0.692848563671112,0.505515992641449,0.6928545527458191,0.5053750276565552
407,0.6928992366790772,0.5048440098762512,0.6928443751335144,0.506147027015686
408,0.6928568453788757,0.5042679905891418,0.692838520526886,0.5062069892883301
409,0.6928795528411865,0.5044040083885193,0.6928308277130127,0.5063350200653076
410,0.6928915667533875,0.5049480199813843,0.6928567590713501,0.5060129761695862
411,0.6929038124084472,0.5032879710197449,0.6928416891098023,0.5056170225143433
412,0.692887237071991,0.5038400292396545,0.6928310489654541,0.5061910152435303
413,0.6929023547172546,0.5035160183906555,0.6928357048034668,0.5065789818763733
414,0.6928402500152588,0.5055639743804932,0.692846040725708,0.5057430267333984
415,0.6928808050155639,0.5050920248031616,0.69283429479599,0.5062549710273743
416,0.6929049148559571,0.5034040212631226,0.6928480687141418,0.5062209963798523
417,0.6928798246383667,0.504863977432251,0.6928233857154846,0.5067409873008728
418,0.6928741445541382,0.5046120285987854,0.6928362984657288,0.5062689781188965
419,0.6928738431930542,0.5048159956932068,0.692848186969757,0.5062450170516968
420,0.6928465404510498,0.5055840015411377,0.6928304691314697,0.5061269998550415
421,0.6928985261917114,0.5042399764060974,0.6928523774147034,0.5065330266952515
422,0.6928555793762207,0.5047000050544739,0.69283442735672,0.5060070157051086
423,0.6928760204315185,0.5047039985656738,0.6928453121185303,0.5060229897499084
424,0.6929202923774719,0.5030239820480347,0.6928604607582092,0.5056790113449097
425,0.6928940901756286,0.5047320127487183,0.6928241796493531,0.5066189765930176
426,0.6928952221870422,0.5048239827156067,0.6928434138298034,0.506076991558075
427,0.6928719849586487,0.505515992641449,0.6928379554748535,0.505827009677887
428,0.6929142580032349,0.5051079988479614,0.6928535223007202,0.5061749815940857
429,0.6929018335342407,0.503928005695343,0.6928321995735168,0.5065370202064514
430,0.6928784322738647,0.5053200125694275,0.6928392024040222,0.5063369870185852
431,0.6928922147750854,0.5040000081062317,0.6928244652748108,0.5067650079727173
432,0.6928727426528931,0.5043320059776306,0.6928514590263367,0.5061650276184082
433,0.6929022774696351,0.5037559866905212,0.6928485708236695,0.5060030221939087
434,0.692883635520935,0.5049960017204285,0.6928472280502319,0.5061129927635193
435,0.6928855657577515,0.5045040249824524,0.6928225011825562,0.5074470043182373
436,0.6928985557556152,0.5039719939231873,0.6928597588539124,0.5063930153846741
437,0.6928571367263794,0.5055080056190491,0.6928434591293335,0.5064089894294739
438,0.6928846321105957,0.5036479830741882,0.6928367147445679,0.5059670209884644
439,0.6928843703269959,0.5052880048751831,0.6928656821250916,0.505066990852356
440,0.6928415098190308,0.5056920051574707,0.6928399939537049,0.5059570074081421
441,0.6928600749969482,0.5046240091323853,0.6928333916664123,0.5063109993934631
442,0.6929129853248596,0.5037400126457214,0.6928495197296143,0.5060909986495972
443,0.692913300037384,0.5039759874343872,0.692843581199646,0.5062029957771301
444,0.6928533592224121,0.506443977355957,0.692855504989624,0.5057070255279541
445,0.692878429889679,0.5045719742774963,0.6928374724388122,0.5061929821968079
446,0.6929277291297913,0.5051980018615723,0.6928315272331238,0.5059130191802979
447,0.6928754549026489,0.5038679838180542,0.6928335604667664,0.5063549876213074
448,0.6928945703506469,0.5049759745597839,0.6928364806175232,0.5066689848899841
449,0.6928855404853821,0.50519198179245,0.6928374457359314,0.5068169832229614
450,0.6928548002243042,0.5055400133132935,0.6928514604568481,0.5052570104598999
451,0.6928654608726501,0.5045400261878967,0.6928378257751465,0.5065990090370178
452,0.692877387046814,0.5049600005149841,0.6928237624168396,0.5064650177955627
453,0.6928646192550659,0.5060359835624695,0.6928607034683227,0.5051869750022888
454,0.6928893032073975,0.5039680004119873,0.6928475804328919,0.506430983543396
455,0.6928653063774108,0.5048360228538513,0.6928547253608703,0.5058850049972534
456,0.6929013919830322,0.5043759942054749,0.6928583493232727,0.5054569840431213
457,0.6928358755111694,0.506335973739624,0.6928499274253845,0.5056750178337097
458,0.6928717913627624,0.5054759979248047,0.6928494920730591,0.5055750012397766
459,0.6928784694671631,0.503931999206543,0.6928321037292481,0.5058749914169312
460,0.692853482246399,0.5048199892044067,0.69285196018219,0.5063250064849854
461,0.6928805370330811,0.5047079920768738,0.6928318252563477,0.5065010190010071
462,0.6928571915626526,0.5049359798431396,0.6928555898666382,0.5061830282211304
463,0.6928632564544678,0.50518399477005,0.6928341274261475,0.5063909888267517
464,0.6928698787689209,0.5051640272140503,0.6928382544517517,0.5061089992523193
465,0.6928642892837524,0.5043479800224304,0.692840205192566,0.5060669779777527
466,0.6928800563812256,0.5049279928207397,0.692867561340332,0.505357027053833
467,0.6928649249076844,0.5049800276756287,0.6928475303649902,0.5059009790420532
468,0.6929024572372436,0.5038959980010986,0.6928386712074279,0.5065370202064514
469,0.6928759541511536,0.5050719976425171,0.6928238053321838,0.506974995136261
470,0.6928608064651489,0.5051559805870056,0.6928430037498474,0.5060170292854309
471,0.6928658652305603,0.504859983921051,0.6928322257995605,0.5071510076522827
472,0.6929074082374572,0.5034760236740112,0.6928333568572999,0.5059270262718201
473,0.6928955307006835,0.5034559965133667,0.692855839252472,0.50553297996521
474,0.6929166069030762,0.5037479996681213,0.6928531370162964,0.5056350231170654
475,0.6928525285720826,0.5058559775352478,0.6928374905586243,0.5060170292854309
476,0.6928823914527893,0.5035960078239441,0.6928531322479248,0.5060170292854309
477,0.6928650898933411,0.5052040219306946,0.6928450031280518,0.5059109926223755
478,0.6928792824745178,0.5037840008735657,0.6928726034164429,0.5047529935836792
479,0.6928591623306274,0.5059040188789368,0.6928286437988281,0.5062310099601746
480,0.6928704705238342,0.5046240091323853,0.6928436045646668,0.506371021270752
481,0.6928528532981872,0.5056480169296265,0.6928287777900696,0.5062509775161743
482,0.6928873424530029,0.5048199892044067,0.6928233270645141,0.5069730281829834
483,0.6928781189918518,0.5052099823951721,0.6928391141891479,0.5064389705657959
484,0.6928807120323182,0.5041959881782532,0.6928420343399048,0.5060269832611084
485,0.692857889175415,0.5057839751243591,0.6928360347747803,0.5064749717712402
486,0.6928603210449219,0.50490802526474,0.6928324680328369,0.506479024887085
487,0.6928573684692383,0.5040280222892761,0.6928348760604859,0.5061209797859192
488,0.6928613638877869,0.5046120285987854,0.6928420000076294,0.5065969824790955
489,0.6928663740158081,0.5050680041313171,0.6928352208137513,0.5064169764518738
490,0.692846649646759,0.5053560137748718,0.6928489294052124,0.5061450004577637
491,0.6928966450691223,0.5044400095939636,0.6928514904975891,0.5058450102806091
492,0.6929046192169189,0.5040079951286316,0.6928474998474121,0.5061550140380859
493,0.6928962411880493,0.5052599906921387,0.6928441171646118,0.5068950057029724
494,0.6928834848403931,0.5038999915122986,0.6928370871543884,0.506538987159729
495,0.6928726596832275,0.504971981048584,0.6928322024345398,0.5062729716300964
496,0.6928537306785584,0.5054839849472046,0.6928519983291626,0.5059469938278198
497,0.6928876347541809,0.5041599869728088,0.6928451452255249,0.5064910054206848
498,0.6928464879989624,0.5050839781761169,0.6928486070632934,0.5054190158843994
499,0.6928869595527649,0.5040479898452759,0.6928516998291016,0.506542980670929
