,testloss,testacc,trainloss,trainacc
0,0.6927569861412048,0.5060314536094666,0.6927835197448731,0.5059942603111267
1,0.6927302393913269,0.505534291267395,0.6927572331428528,0.5064428448677063
2,0.6927696046829224,0.5057342648506165,0.6927970752716065,0.5060057044029236
3,0.6927685089111328,0.5052828788757324,0.6927672410011292,0.506317138671875
4,0.6927100005149841,0.5057171583175659,0.6927848658561706,0.5058171153068542
5,0.6927322278022766,0.5058771371841431,0.6927937030792236,0.5056085586547852
6,0.6927756690979003,0.5041000247001648,0.6927745714187622,0.5062199831008911
7,0.6927358336448669,0.507162868976593,0.6927719893455505,0.5066457390785217
8,0.6927994856834412,0.5056257247924805,0.692835036277771,0.5049657225608826
9,0.6927240400314331,0.506574273109436,0.6927929549217224,0.5058314204216003
10,0.6927634859085083,0.505448579788208,0.6927879323959351,0.506208598613739
11,0.6927448830604553,0.5052485466003418,0.692776683807373,0.5058685541152954
12,0.6927695369720459,0.505791425704956,0.692772304058075,0.5062285661697388
13,0.6927750935554504,0.5049171447753906,0.6928023147583008,0.5059714317321777
14,0.6927806339263916,0.503734290599823,0.6927910170555115,0.5067114233970642
15,0.6927742981910705,0.5042028427124023,0.6927685623168945,0.5060942769050598
16,0.6927249827384949,0.5064257383346558,0.6927589678764343,0.5067371726036072
17,0.6927688403129577,0.5055171251296997,0.6927778496742248,0.5063142776489258
18,0.6928595237731934,0.5057628750801086,0.6928781194686889,0.5059085488319397
19,0.6927450604438782,0.5059800148010254,0.6927819247245789,0.5064914226531982
20,0.692733272075653,0.5062199831008911,0.6927740426063538,0.5057685971260071
21,0.692744936466217,0.5072314143180847,0.6928025946617127,0.5057628750801086
22,0.6927577652931214,0.5050714015960693,0.6927725629806518,0.5068228840827942
23,0.6927374863624572,0.5063742995262146,0.6927743945121765,0.5059913992881775
24,0.692780213356018,0.5049571394920349,0.6927646126747131,0.5057657361030579
25,0.6927430763244629,0.504837155342102,0.6928101797103882,0.5053600072860718
26,0.6927685732841492,0.5048542618751526,0.6927782349586487,0.5064828395843506
27,0.6927685060501099,0.5055114030838013,0.6927796549797058,0.5072371363639832
28,0.692766637802124,0.5041114091873169,0.6927801780700683,0.5058885812759399
29,0.6927568254470825,0.5058256983757019,0.6927520790100098,0.5068028569221497
30,0.6927190217971801,0.5046771168708801,0.6927832207679748,0.5058885812759399
31,0.6927916359901428,0.504751443862915,0.6928014945983887,0.5059843063354492
32,0.6928075761795044,0.5053971409797668,0.6928170199394226,0.505902886390686
33,0.692774866104126,0.504431426525116,0.6927698650360108,0.5062742829322815
34,0.6927643170356751,0.5048542618751526,0.6927924814224243,0.5058543086051941
35,0.6927849836349488,0.5060257315635681,0.6927970085144043,0.5060343146324158
36,0.6927855939865112,0.5059571266174316,0.692796790599823,0.5062142610549927
37,0.6927813515663147,0.5048485994338989,0.6927796349525451,0.5063942670822144
38,0.6927399563789368,0.5056599974632263,0.6927828979492188,0.5053971409797668
39,0.692731785774231,0.5061914324760437,0.6927568969726563,0.506820023059845
40,0.6936965751647949,0.5046057105064392,0.6936930770874024,0.5041621327400208
41,0.6929768905639648,0.5037628412246704,0.6929084687232971,0.5050628781318665
42,0.6928395290374756,0.5058771371841431,0.6928305382728577,0.5062457323074341
43,0.6927797636985779,0.5036942958831787,0.6927637372016907,0.5066457390785217
44,0.6927381873130798,0.5064714550971985,0.692775505065918,0.5059999823570251
45,0.6927359118461609,0.505728542804718,0.6927876634597778,0.5063456892967224
46,0.692738314628601,0.5051228404045105,0.6927849216461182,0.5064799785614014
47,0.6927408027648926,0.5047171711921692,0.692744345664978,0.5069742798805237
48,0.6927788558006287,0.5042142868041992,0.6927701578140258,0.5059657096862793
49,0.692776741027832,0.5043114423751831,0.6927817378044129,0.5050657391548157
50,0.6927586965560913,0.5061914324760437,0.6927742900848388,0.5061942934989929
51,0.6927818069458008,0.5038999915122986,0.6927864336967469,0.5063942670822144
52,0.692744375705719,0.5058314204216003,0.6927699975967407,0.5060399770736694
53,0.692729902267456,0.5062828660011292,0.6927877020835876,0.5058143138885498
54,0.6928027920722961,0.5045971274375916,0.6927853279113769,0.5062685608863831
55,0.6927767395973206,0.5046542882919312,0.6927944636344909,0.50510573387146
56,0.6927568936347961,0.5051000118255615,0.6927840189933777,0.5061714053153992
57,0.6927698583602905,0.5055857300758362,0.6927604384422302,0.5065342783927917
58,0.6927395820617676,0.5056999921798706,0.6927924690246582,0.5056171417236328
59,0.6927245206832886,0.5055057406425476,0.6927563672065735,0.506928563117981
60,0.6927776746749877,0.5051628351211548,0.6927654056549072,0.5068399906158447
61,0.6927372307777405,0.5051342844963074,0.692774730682373,0.5063428282737732
62,0.6927811155319213,0.5044485926628113,0.6927895450592041,0.5062457323074341
63,0.6927374672889709,0.5064485669136047,0.692767493724823,0.5062228441238403
64,0.6927660341262818,0.5053399801254272,0.6927578649520874,0.5066400170326233
65,0.6927501454353332,0.5048428773880005,0.6927806787490844,0.506060004234314
66,0.6927326664924621,0.5044028759002686,0.6927905387878418,0.5053685903549194
67,0.6928037157058716,0.5057742595672607,0.6927825713157654,0.5065028667449951
68,0.6927465825080872,0.5051514506340027,0.6927801012992859,0.5055999755859375
69,0.6927878108024598,0.5045285820960999,0.6927769150733948,0.5056228637695312
70,0.6927726936340332,0.5048028826713562,0.6927771201133728,0.5064399838447571
71,0.6927604050636291,0.5051457285881042,0.6927835426330566,0.506600022315979
72,0.6927845077514648,0.5051457285881042,0.6927712349891663,0.5063685774803162
73,0.6927770619392395,0.5045056939125061,0.6927781128883361,0.5061285495758057
74,0.6927508540153503,0.5056028366088867,0.6927742929458618,0.5067456960678101
75,0.6927289667129517,0.5057457089424133,0.6927919645309448,0.5052542686462402
76,0.6927617583274841,0.5049914121627808,0.6927759199142456,0.5063028335571289
77,0.6927682490348815,0.5048885941505432,0.6927747645378113,0.505974292755127
78,0.6927653193473816,0.503882884979248,0.692818516254425,0.5055514574050903
79,0.6927588496208191,0.5063914060592651,0.6927873892784119,0.5059000253677368
80,0.6927635884284973,0.5051342844963074,0.6927695116996765,0.5058228373527527
81,0.6927720875740051,0.5045514106750488,0.69277969789505,0.5059142708778381
82,0.6927643542289734,0.5042657256126404,0.6927774491310119,0.5061428546905518
83,0.6927734642028809,0.5051228404045105,0.6927762694358826,0.5056542754173279
84,0.6927170376777649,0.5058143138885498,0.6927697467803955,0.5063542723655701
85,0.6927705483436585,0.5050657391548157,0.6927740263938904,0.506965696811676
86,0.6927536392211914,0.5047971606254578,0.692790201663971,0.5061714053153992
87,0.6928207874298096,0.5026714205741882,0.6927751345634461,0.5064485669136047
88,0.6927766537666321,0.5050428509712219,0.6927739915847778,0.5056714415550232
89,0.6927683229446411,0.5056885480880737,0.6927686772346496,0.5064314007759094
90,0.6927414374351502,0.5057571530342102,0.6927762823104858,0.5064714550971985
91,0.6927222170829773,0.5056800246238708,0.6927723183631896,0.5055371522903442
92,0.6927616815567017,0.5048314332962036,0.6927695331573487,0.5058971643447876
93,0.692750648021698,0.5070414543151855,0.6927728242874146,0.5059599876403809
94,0.6927626590728759,0.5055514574050903,0.6927769179344178,0.5064799785614014
95,0.692737895488739,0.5057742595672607,0.6927751231193543,0.506317138671875
96,0.6927579412460327,0.5042999982833862,0.6927654075622559,0.5063114166259766
97,0.6927532606124878,0.5041400194168091,0.6927759699821472,0.5061228275299072
98,0.6927507610321045,0.5065971612930298,0.6927661075592041,0.5069400072097778
99,0.6927429161071778,0.5044599771499634,0.6927943897247314,0.505582869052887
100,0.692805459022522,0.5043914318084717,0.6927942023277283,0.5047600269317627
101,0.6927449502944947,0.505020022392273,0.6927866921424866,0.5056056976318359
102,0.6927833232879639,0.5044771432876587,0.6927741641998291,0.5061028599739075
103,0.6927780957221985,0.5051571130752563,0.6927832279205323,0.5055599808692932
104,0.6927395401000976,0.5072600245475769,0.6927817511558533,0.5061485767364502
105,0.6927699337005615,0.505620002746582,0.6927487554550171,0.507382869720459
106,0.692761836051941,0.5046942830085754,0.6927759757041931,0.5059685707092285
107,0.6927809743881226,0.5046942830085754,0.6928005647659302,0.5055285692214966
108,0.6927524180412292,0.5051000118255615,0.6927686185836792,0.5063314437866211
109,0.6927496972084045,0.5050771236419678,0.6927732043266296,0.5064714550971985
110,0.6927695894241332,0.504517138004303,0.6927829809188842,0.5064914226531982
111,0.6927734770774842,0.5053743124008179,0.6927697820663452,0.5069314241409302
112,0.6927658138275147,0.5051742792129517,0.6927792673110962,0.5056456923484802
113,0.6927966322898865,0.5047342777252197,0.6927770824432373,0.5057828426361084
114,0.6927499012947083,0.5041114091873169,0.6927757391929626,0.5057142972946167
115,0.692780059337616,0.5049856901168823,0.6927819924354554,0.5059628486633301
116,0.692746612071991,0.5059285759925842,0.6927809720039367,0.5059457421302795
117,0.6927409296035767,0.5062428712844849,0.6927835330963135,0.5064399838447571
118,0.6927533445358276,0.5047971606254578,0.6927752523422241,0.5066885948181152
119,0.6927321901321412,0.5064600110054016,0.6927945613861084,0.5056056976318359
120,0.6927608695030213,0.5043514370918274,0.692764582157135,0.5071142911911011
121,0.6927677478790283,0.5060771703720093,0.6928304901123047,0.5058171153068542
122,0.6927697601318359,0.5042885541915894,0.6927907390594482,0.5064714550971985
123,0.6927314653396607,0.5050085783004761,0.6927858438491822,0.5056456923484802
124,0.692719425201416,0.5072942972183228,0.6927760219573975,0.5068114399909973
125,0.6927974967956543,0.5036143064498901,0.6927818102836609,0.5055285692214966
126,0.6927450785636902,0.5042885541915894,0.6927827882766724,0.5062171220779419
127,0.6927473354339599,0.5045056939125061,0.6927722678184509,0.5067285895347595
128,0.6927685270309448,0.5048714280128479,0.6927861862182617,0.5055514574050903
129,0.692750165939331,0.5055742859840393,0.692782977104187,0.5060999989509583
130,0.6927319827079773,0.5062771439552307,0.6927744464874268,0.5063114166259766
131,0.6927506847381592,0.5048028826713562,0.6927650246620178,0.5062828660011292
132,0.6928186907768249,0.5032542943954468,0.6927946376800537,0.505642831325531
133,0.6927516641616821,0.5067285895347595,0.6927889490127563,0.5056514143943787
134,0.6927646088600159,0.5056657195091248,0.6927639331817627,0.5061600208282471
135,0.6927976579666137,0.5038942694664001,0.6927772245407104,0.5051142573356628
136,0.6927357888221741,0.5061571598052979,0.69280784034729,0.5059913992881775
137,0.69276775598526,0.5048314332962036,0.6927763628959656,0.5066514015197754
138,0.6927548303604126,0.5060314536094666,0.6927547821998596,0.5072885751724243
139,0.6927851381301879,0.5050600171089172,0.6927788634300232,0.5070657134056091
140,0.6927356061935425,0.5064371228218079,0.6927813758850098,0.5060657262802124
141,0.6927852816581727,0.5041971206665039,0.6927659821510315,0.5066514015197754
142,0.6927470378875732,0.5048542618751526,0.692792432308197,0.5059171319007874
143,0.6927840666770935,0.5041342973709106,0.6927871127128601,0.5057342648506165
144,0.692719069480896,0.5060085654258728,0.692792444229126,0.5060257315635681
145,0.6927554469108581,0.5063285827636719,0.6927820324897767,0.5062656998634338
146,0.6927694244384766,0.5062257051467896,0.6927976198196412,0.5052028298377991
147,0.6927866835594177,0.5050657391548157,0.6927718319892884,0.5061971545219421
148,0.6928084216117859,0.5052886009216309,0.6927730197906494,0.5059828758239746
149,0.6927818088531494,0.5058428645133972,0.6927724976539612,0.505691409111023
150,0.6927395963668823,0.5058256983757019,0.6927740168571472,0.5060171484947205
151,0.692845296382904,0.504274308681488,0.6928344984054565,0.5050814151763916
152,0.6927610254287719,0.5059457421302795,0.6928013863563538,0.5060371160507202
153,0.6927664709091187,0.5053914189338684,0.6927987694740295,0.5059685707092285
154,0.6928128294944763,0.5037514567375183,0.6927790460586548,0.506771445274353
155,0.6927518982887269,0.5043857097625732,0.692769024848938,0.5063085556030273
156,0.692770498752594,0.5041000247001648,0.6927806730270386,0.5054256916046143
157,0.6927579374313354,0.5060428380966187,0.6928022694587708,0.5059314370155334
158,0.6927680521011352,0.504837155342102,0.6927767539024353,0.5068399906158447
159,0.692737940788269,0.5063971281051636,0.6927819509506226,0.5054942965507507
160,0.6928007311820984,0.5045914053916931,0.6928115544319153,0.5061742663383484
161,0.6927650403976441,0.5042885541915894,0.6927920269966126,0.5061657428741455
162,0.6927924675941467,0.5041000247001648,0.6927802233695984,0.5061742663383484
163,0.6927860646247864,0.5043857097625732,0.6927911524772644,0.5055714249610901
164,0.6927428693771363,0.5051800012588501,0.6927871437072753,0.5063428282737732
165,0.6927996344566345,0.5050942897796631,0.6927906670570374,0.5060771703720093
166,0.6927874946594238,0.5041628479957581,0.6927747840881348,0.5066085457801819
167,0.6928033471107483,0.5038999915122986,0.6927786965370178,0.5059971213340759
168,0.6928001933097839,0.5044828653335571,0.6927897582054138,0.5060399770736694
169,0.692753203868866,0.5037400126457214,0.6927706780433655,0.5063771605491638
170,0.6927658686637879,0.5048085451126099,0.6927751641273499,0.5068256855010986
171,0.692765429019928,0.5047799944877625,0.6927623252868652,0.5067399740219116
172,0.6927546668052673,0.5052485466003418,0.69279714012146,0.5059342980384827
173,0.6927556281089783,0.5063228607177734,0.692772298336029,0.5058457255363464
174,0.6927793955802918,0.5052542686462402,0.6927760291099548,0.5060456991195679
175,0.6927771730422974,0.5041228532791138,0.6927438354492188,0.5070000290870667
176,0.6927618412971497,0.506488561630249,0.692766791343689,0.5064771175384521
177,0.6927375535964966,0.5060885548591614,0.6927912974357605,0.505840003490448
178,0.6927598009109497,0.5049685835838318,0.6927917847633361,0.5058971643447876
179,0.6927624468803406,0.5056085586547852,0.6927812304496765,0.5062114000320435
180,0.692757299900055,0.5051571130752563,0.6927828259468078,0.5059771537780762
181,0.6927376494407654,0.5058543086051941,0.6927990689277649,0.5049800276756287
182,0.6927902884483338,0.5035342574119568,0.6927737832069397,0.5062971711158752
183,0.6927601361274719,0.5056942701339722,0.6927997913360596,0.5057200193405151
184,0.6926985449790954,0.5080657005310059,0.6927606434822082,0.5066771507263184
185,0.6927606449127197,0.5049399733543396,0.6928091468811035,0.5055685639381409
186,0.6927714705467224,0.5045285820960999,0.6927970361709594,0.5059342980384827
187,0.6927510361671447,0.5057514309883118,0.6927666015625,0.5071514248847961
188,0.6927493243217469,0.5048085451126099,0.6927682704925537,0.5071057081222534
189,0.6928036794662475,0.5044656991958618,0.692789050579071,0.506182849407196
190,0.6927993574142456,0.5023800134658813,0.692769591331482,0.5061114430427551
191,0.6927657642364502,0.505448579788208,0.692792760848999,0.5058028697967529
192,0.6928155865669251,0.5042371153831482,0.6927825312614441,0.506208598613739
193,0.6927742781639099,0.5051857233047485,0.6927824807167053,0.5065171718597412
194,0.6927860412597656,0.5042657256126404,0.6927886281013489,0.5066171288490295
195,0.6927682008743287,0.5049171447753906,0.6927751526832581,0.5059285759925842
196,0.6927555108070373,0.5051800012588501,0.6927807946205139,0.505228579044342
197,0.6927313523292542,0.505214273929596,0.6927755899429321,0.5058514475822449
198,0.6927713842391968,0.5051342844963074,0.6927634539604187,0.5069257020950317
199,0.6927692022323608,0.5048542618751526,0.692778064250946,0.5065571665763855
200,0.6927245154380798,0.5049399733543396,0.6927888007164001,0.5058857202529907
201,0.6927521739006043,0.5060714483261108,0.6927676758766175,0.5057828426361084
202,0.6927342748641968,0.5059457421302795,0.6927686700820923,0.5059913992881775
203,0.692762761592865,0.503671407699585,0.6927823309898377,0.5064742565155029
204,0.6927836918830872,0.5054200291633606,0.6927842741012573,0.506011426448822
205,0.692755542755127,0.50432288646698,0.6927883911132813,0.5063771605491638
206,0.6927032151222229,0.5060257315635681,0.6927658896446228,0.5069714188575745
207,0.6927856435775757,0.5031571388244629,0.6927762961387635,0.5069771409034729
208,0.6927753353118896,0.5054314136505127,0.6927742366790771,0.5062914490699768
209,0.6927467517852783,0.5056942701339722,0.6927929239273072,0.5057171583175659
210,0.6927699956893921,0.5041457414627075,0.692794189453125,0.5055714249610901
211,0.6927928700447082,0.5050828456878662,0.6928043045997619,0.5056485533714294
212,0.6927792134284974,0.5038657188415527,0.6927725019454956,0.5061028599739075
213,0.6927692480087281,0.5055971145629883,0.6927903327941894,0.5054885745048523
214,0.6927698707580566,0.5047000050544739,0.6927857728004455,0.5049257278442383
215,0.6927407078742981,0.506380021572113,0.6927698950767517,0.5063285827636719
216,0.6927619576454163,0.5054200291633606,0.692776972770691,0.5063657164573669
217,0.6927687888145446,0.504517138004303,0.692773344039917,0.5067685842514038
218,0.6927604331970215,0.5047114491462708,0.6927790355682373,0.5061428546905518
219,0.69276935338974,0.5051400065422058,0.6927817950248718,0.5062514543533325
220,0.6927470626831055,0.505299985408783,0.6927758951187134,0.5062914490699768
221,0.6927680163383484,0.505791425704956,0.6927715435028076,0.5060171484947205
222,0.6927635555267334,0.50331711769104,0.6928053073883057,0.5060085654258728
223,0.6927637367248535,0.5062828660011292,0.6927907557487488,0.504837155342102
224,0.6927948760986328,0.5044771432876587,0.6927849278450012,0.5058971643447876
225,0.6927511429786682,0.5056542754173279,0.692789972782135,0.505691409111023
226,0.6927560076713563,0.5055228471755981,0.6927839026451111,0.5062199831008911
227,0.6927699947357178,0.5054885745048523,0.6927733111381531,0.5059628486633301
228,0.6927473287582397,0.5056542754173279,0.6927560482025147,0.5069971680641174
229,0.6927529559135437,0.5058199763298035,0.6927750329971314,0.5057028532028198
230,0.6927644395828247,0.5048885941505432,0.6927660555839539,0.5066285729408264
231,0.6927491393089295,0.5055400133132935,0.6927715516090394,0.5064571499824524
232,0.6927865052223205,0.504665732383728,0.6927753067016602,0.5068457126617432
233,0.6928115706443787,0.5040256977081299,0.69277641248703,0.5063571333885193
234,0.6928025827407837,0.5025514364242554,0.692795799255371,0.5051314234733582
235,0.6927572021484375,0.5049571394920349,0.6927855324745178,0.5058799982070923
236,0.6927550692558289,0.5044771432876587,0.6927577619552612,0.5069342851638794
237,0.6927641205787659,0.5060542821884155,0.6928047728538513,0.5051257014274597
238,0.6927462840080261,0.5054314136505127,0.6927870469093322,0.5062000155448914
239,0.6927955570220947,0.5037685632705688,0.6927585225105286,0.5066314339637756
240,0.6927652921676636,0.5050657391548157,0.6927767343521118,0.5067971348762512
241,0.6927685947418213,0.50538569688797,0.6927836966514588,0.5058057308197021
242,0.6927672429084778,0.5045857429504395,0.6927842993736267,0.5060257315635681
243,0.6927407846450806,0.5063685774803162,0.692782368183136,0.5061057209968567
244,0.6927595467567443,0.5053685903549194,0.6927950882911682,0.5060057044029236
245,0.692791434764862,0.5052314400672913,0.6927828197479248,0.5055771470069885
246,0.6927353281974793,0.505020022392273,0.6927741885185241,0.5069599747657776
247,0.6927623052597046,0.5044885873794556,0.6928066143989563,0.5056714415550232
248,0.6927766599655152,0.5047914385795593,0.6927622623443603,0.5061799883842468
249,0.6927688965797424,0.5060142874717712,0.6927803530693054,0.5063685774803162
250,0.6927535409927368,0.5050085783004761,0.6927615156173706,0.5071514248847961
251,0.6927943711280823,0.5049571394920349,0.6927580485343933,0.5067514181137085
252,0.6927757673263549,0.5051000118255615,0.6927753667831421,0.5065228343009949
253,0.6927800736427308,0.5048028826713562,0.6927781882286072,0.5053743124008179
254,0.6927575821876526,0.5047857165336609,0.6927758297920227,0.5057428479194641
255,0.6927467589378357,0.5041457414627075,0.6927861065864563,0.5059571266174316
256,0.6927854733467103,0.5047285556793213,0.6927741918563842,0.5058714151382446
257,0.6927720255851746,0.5057971477508545,0.6927767972946167,0.5061200261116028
258,0.6927766671180725,0.5046314001083374,0.6927958807945251,0.5056257247924805
259,0.6927965898513794,0.5047285556793213,0.6927772932052613,0.5055171251296997
260,0.6927690358161926,0.5051571130752563,0.6927698192596435,0.5067456960678101
261,0.6927324261665344,0.5057628750801086,0.6927920837402344,0.5056514143943787
262,0.6927591109275818,0.5049914121627808,0.6927812428474426,0.5064142942428589
263,0.6927832069396973,0.50460284948349,0.6927652049064636,0.5066542625427246
264,0.6927759552001953,0.5050942897796631,0.6927911448478699,0.5062571167945862
265,0.692748158454895,0.5054942965507507,0.6927991666793823,0.5065428614616394
266,0.6927635002136231,0.5046714544296265,0.6927826056480407,0.5062000155448914
267,0.6927785124778748,0.5042828321456909,0.6927781505584717,0.5060314536094666
268,0.692762324333191,0.5048028826713562,0.6927905707359314,0.5063400268554688
269,0.6927514224052429,0.5056371688842773,0.6927746868133545,0.5054428577423096
270,0.6927739295959473,0.5053685903549194,0.6927761263847351,0.5066428780555725
271,0.692817301273346,0.5037228465080261,0.692786693572998,0.5051457285881042
272,0.6927925200462342,0.5040085911750793,0.6927750010490418,0.5062114000320435
273,0.6927726321220398,0.5048885941505432,0.6928030786514282,0.5047000050544739
274,0.6927590298652649,0.5047171711921692,0.6927623271942138,0.506879985332489
275,0.692743510723114,0.5058428645133972,0.6927885174751282,0.5058057308197021
276,0.6927515373229981,0.5053799748420715,0.69277805185318,0.505840003490448
277,0.6927810697555542,0.504751443862915,0.6927754764556885,0.5060743093490601
278,0.6927729668617248,0.5046085715293884,0.6927786145210266,0.5059771537780762
279,0.6927835254669189,0.5049114227294922,0.6927866506576538,0.5061942934989929
280,0.6927494797706604,0.5049285888671875,0.6927932868003845,0.5058256983757019
281,0.6927677812576294,0.5049685835838318,0.6927706217765808,0.5061542987823486
282,0.6927418489456176,0.5059800148010254,0.6927948570251465,0.5055285692214966
283,0.6927938380241394,0.5047457218170166,0.6927818579673767,0.5062999725341797
284,0.6927380313873291,0.5051285624504089,0.692798722743988,0.5058057308197021
285,0.6927632975578308,0.5049514174461365,0.6927833890914917,0.5065285563468933
286,0.6927941398620605,0.5038542747497559,0.6927942533493042,0.5062400102615356
287,0.6927540822029113,0.507162868976593,0.6927859015464782,0.5062371492385864
288,0.6928015933036804,0.5044828653335571,0.6927758159637452,0.5061314105987549
289,0.6927594308853149,0.505642831325531,0.6927925691604614,0.5065057277679443
290,0.6928086452484131,0.502608597278595,0.6927861194610596,0.5056971311569214
291,0.6927479257583619,0.5054656863212585,0.6927669229507446,0.5058742761611938
292,0.6927650179862976,0.5058543086051941,0.6927869849205017,0.5067314505577087
293,0.6927750458717347,0.5046828389167786,0.6928100290298462,0.5053542852401733
294,0.6927675614356995,0.504837155342102,0.6927710137367249,0.5059400200843811
295,0.6927648711204529,0.5062771439552307,0.6927927432060241,0.5055628418922424
296,0.6927466497421265,0.5062428712844849,0.6927990970611573,0.5060200095176697
297,0.6927660145759582,0.5055114030838013,0.6927583374977112,0.5069400072097778
298,0.6927662343978882,0.5056885480880737,0.6927951874732972,0.5055371522903442
299,0.6927620196342468,0.5049343109130859,0.6927880153656006,0.5049285888671875
300,0.6927593789100647,0.5056371688842773,0.6927703976631164,0.5066514015197754
301,0.6927702341079712,0.5058314204216003,0.6927574772834778,0.5062914490699768
302,0.6927633295059205,0.504431426525116,0.6927928528785705,0.5061571598052979
303,0.6927338328361511,0.505020022392273,0.692771192073822,0.506600022315979
304,0.6927638397216797,0.5064771175384521,0.692783456325531,0.5057342648506165
305,0.6927751126289368,0.5046314001083374,0.6927753772735595,0.5058256983757019
306,0.6927352452278137,0.5053057074546814,0.6927884225845337,0.5059228539466858
307,0.692771713256836,0.5054428577423096,0.6927606086730957,0.5063714385032654
308,0.6927446193695068,0.5054314136505127,0.6927693924903869,0.5058428645133972
309,0.6927232780456543,0.5056257247924805,0.692779685497284,0.5059999823570251
310,0.6927381057739258,0.5056657195091248,0.6927859048843383,0.5061514377593994
311,0.6927875094413757,0.505448579788208,0.6927724351882935,0.5064342617988586
312,0.6927809915542602,0.5045571327209473,0.6927797899246216,0.5061028599739075
313,0.6927605018615722,0.5063056945800781,0.692797610282898,0.505277156829834
314,0.6927602005004883,0.5048085451126099,0.6927862663269043,0.5069199800491333
315,0.6928136372566223,0.50382000207901,0.6927742056846619,0.5057514309883118
316,0.6928002710342407,0.5038371682167053,0.6927803301811218,0.5058457255363464
317,0.6927774858474731,0.5060771703720093,0.6927692775726318,0.5066685676574707
318,0.6927903256416321,0.5046485662460327,0.6927593283653259,0.5070228576660156
319,0.6927647047042846,0.5051228404045105,0.6927936491966248,0.5059400200843811
320,0.6927307486534119,0.5073114037513733,0.6927923965454101,0.5058771371841431
321,0.692727698802948,0.5054543018341064,0.6927974486351013,0.5056142807006836
322,0.6927533822059632,0.5057571530342102,0.6927768616676331,0.5062142610549927
323,0.6927648062705993,0.5063628554344177,0.6927982015609742,0.5058543086051941
324,0.6927478938102722,0.5045857429504395,0.6927930493354797,0.505728542804718
325,0.6927732639312744,0.5040028691291809,0.692804235458374,0.5056485533714294
326,0.692737612247467,0.5056542754173279,0.6927866158485413,0.5056771636009216
327,0.6927682600021362,0.5044028759002686,0.6927830719947815,0.5062971711158752
328,0.6927703099250794,0.5048714280128479,0.6927942681312561,0.5060514211654663
329,0.692757827758789,0.505362868309021,0.6927836689949035,0.506380021572113
330,0.6927692203521728,0.5051457285881042,0.6927790341377258,0.5059599876403809
331,0.6927838592529297,0.5047399997711182,0.6927772965431214,0.5062057375907898
332,0.6928037424087524,0.50460284948349,0.6927823400497437,0.5060314536094666
333,0.6927632389068603,0.5045343041419983,0.692765311717987,0.5064200162887573
334,0.6927635588645935,0.5052714347839355,0.6927543196678162,0.5071799755096436
335,0.6927572908401489,0.5058143138885498,0.6927889981269837,0.5058714151382446
336,0.6928028478622437,0.5045400261878967,0.6927757430076599,0.5055685639381409
337,0.6927712268829346,0.5048428773880005,0.6927784414291381,0.5063314437866211
338,0.6927644333839417,0.5053914189338684,0.6927746820449829,0.5061256885528564
339,0.6927917194366455,0.5049514174461365,0.6927765741348266,0.5061799883842468
340,0.6927993173599243,0.5049171447753906,0.6927696046829224,0.5062199831008911
341,0.6927841243743896,0.5047342777252197,0.6927656464576721,0.5069742798805237
342,0.6927754292488099,0.5058485865592957,0.6927699031829834,0.5065400004386902
343,0.7156778011322021,0.5008114576339722,0.714565447807312,0.5013478398323059
344,0.6927591834068298,0.5067514181137085,0.69278986120224,0.5054942965507507
345,0.6927783718109131,0.5046257376670837,0.6927720851898194,0.5065857172012329
346,0.692801643371582,0.5046542882919312,0.6927826461791993,0.5061914324760437
347,0.6927849278450012,0.5049971342086792,0.6927839674949646,0.506380021572113
348,0.6927507538795471,0.5058143138885498,0.6927772789001465,0.5052914023399353
349,0.692753858089447,0.5051285624504089,0.6927746353149414,0.5060914158821106
350,0.6927671360969544,0.5058199763298035,0.6927803497314453,0.506060004234314
351,0.6928021669387817,0.5048714280128479,0.6927562770843506,0.5065228343009949
352,0.6927868299484253,0.5043685436248779,0.6927760252952576,0.506659984588623
353,0.6927804865837097,0.5038142800331116,0.6927971320152283,0.5057742595672607
354,0.6927717909812927,0.5057171583175659,0.6928015089035034,0.5052800178527832
355,0.6927632513046265,0.5056828856468201,0.6927778420448303,0.5062857270240784
356,0.6927510166168213,0.5060200095176697,0.6927828378677369,0.5061885714530945
357,0.6927642168998718,0.5057171583175659,0.6927855591773987,0.5061742663383484
358,0.6927840228080749,0.5041857361793518,0.6927641253471375,0.5067200064659119
359,0.692737774848938,0.5053285956382751,0.6927916774749756,0.5057514309883118
360,0.6927240347862244,0.5060428380966187,0.6927859311103821,0.5057228803634644
361,0.6927706933021546,0.5046314001083374,0.692785150051117,0.50538569688797
362,0.6927676825523377,0.5060257315635681,0.6927995533943176,0.5055542588233948
363,0.6927763624191284,0.5056942701339722,0.6927979526519775,0.5050514340400696
364,0.6927558307647705,0.503734290599823,0.692762927532196,0.507099986076355
365,0.6927297048568726,0.5044028759002686,0.6927898764610291,0.5064971446990967
366,0.6927496085166931,0.5051171183586121,0.6927727360725403,0.5064371228218079
367,0.6927634243965148,0.5049171447753906,0.692785683631897,0.5066285729408264
368,0.6927709612846374,0.5044999718666077,0.6927980570793152,0.5055542588233948
369,0.6927505764961243,0.5047000050544739,0.6927810072898865,0.505925714969635
370,0.6927542085647583,0.505728542804718,0.6927766242027282,0.5069400072097778
371,0.6927385382652282,0.505791425704956,0.6927774724960327,0.5065485835075378
372,0.6927417969703674,0.5054828524589539,0.6927753481864929,0.5058143138885498
373,0.6928169860839843,0.5043114423751831,0.6927742762565613,0.5064571499824524
374,0.6927684946060181,0.505620002746582,0.6927808842658997,0.5061256885528564
375,0.692782504081726,0.5035342574119568,0.6927755184173584,0.506145715713501
376,0.6927653875350952,0.5049399733543396,0.692783673286438,0.506208598613739
377,0.6927610950469971,0.505214273929596,0.6927923502922058,0.505422830581665
378,0.6927700967788696,0.5061342716217041,0.6927747373580933,0.506794273853302
379,0.69278480052948,0.5045571327209473,0.6927577748298644,0.5066885948181152
380,0.6927534370422364,0.505471408367157,0.6927816963195801,0.5055857300758362
381,0.6927695059776307,0.505471408367157,0.6927788200378417,0.5059771537780762
382,0.6927719874382019,0.5038314461708069,0.6927815809249878,0.5058714151382446
383,0.692779161453247,0.5045971274375916,0.6927925992012024,0.5060200095176697
384,0.6927092657089233,0.5064314007759094,0.692787917137146,0.5064485669136047
385,0.6927481951713562,0.5055000185966492,0.6927753195762635,0.5056885480880737
386,0.6927641868591309,0.5049800276756287,0.6927733654975892,0.5069800019264221
387,0.6927425589561462,0.5060828328132629,0.6928144826889038,0.5060142874717712
388,0.6927482862472534,0.5055000185966492,0.6928191800117492,0.5048914551734924
389,0.6927465424537659,0.5052714347839355,0.6927841372489929,0.5061371326446533
390,0.6927742347717285,0.5053457021713257,0.692784209728241,0.5056999921798706
391,0.6927551732063294,0.5054543018341064,0.6927852487564087,0.5054143071174622
392,0.6927600035667419,0.5047399997711182,0.6927944674491883,0.5058514475822449
393,0.6927516365051269,0.5046771168708801,0.6927838358879089,0.5062457323074341
394,0.6927682094573975,0.505020022392273,0.692789945602417,0.5061085820198059
395,0.6927430472373962,0.505728542804718,0.6927739014625549,0.5067514181137085
396,0.6927273211479187,0.5066828727722168,0.6928027200698853,0.5055999755859375
397,0.6927772207260132,0.5050771236419678,0.6927828726768493,0.5053743124008179
398,0.6927519011497497,0.5058943033218384,0.6927817697525025,0.5062656998634338
399,0.6927608633041382,0.504688560962677,0.6927715549468995,0.506317138671875
400,0.6927701063156128,0.5053571462631226,0.6927991590499878,0.5058028697967529
401,0.6927731909751892,0.5049399733543396,0.6927621965408325,0.5067914128303528
402,0.6927719125747681,0.5050143003463745,0.6928101239204407,0.5047428607940674
403,0.6927561645507813,0.5054428577423096,0.6927714829444885,0.5066085457801819
404,0.692746913909912,0.5053114295005798,0.6927727947235107,0.5061914324760437
405,0.6927358679771424,0.5049800276756287,0.6927736964225769,0.5061342716217041
406,0.6927697601318359,0.5059114098548889,0.6928000640869141,0.504885733127594
407,0.6927633862495423,0.506208598613739,0.692791024684906,0.5062800049781799
408,0.6927839460372924,0.5049971342086792,0.6927828369140625,0.5058971643447876
409,0.6927710342407226,0.5043914318084717,0.6927876706123353,0.5056114196777344
410,0.6927258696556091,0.5054256916046143,0.6927947487831115,0.5062285661697388
411,0.6927752819061279,0.5051971673965454,0.6927655506134033,0.5061571598052979
412,0.6927389693260193,0.5050885677337646,0.6927863397598266,0.5064571499824524
413,0.6927724723815918,0.5050428509712219,0.692781644821167,0.5063114166259766
414,0.6927812538146972,0.5054828524589539,0.6927798089981079,0.5057457089424133
415,0.6927544069290161,0.5046085715293884,0.6927646741867065,0.506402850151062
416,0.6927448868751526,0.5053057074546814,0.6927832036018372,0.5061971545219421
417,0.6927674236297607,0.504859983921051,0.6927848892211914,0.5060399770736694
418,0.6927623219490051,0.5054600238800049,0.6927840695381164,0.5061085820198059
419,0.6927799592018128,0.5051971673965454,0.6927788991928101,0.506060004234314
420,0.6927567214965821,0.5061971545219421,0.6927729043960571,0.5067228674888611
421,0.6927502226829528,0.5052199959754944,0.6927680702209472,0.5069142580032349
422,0.6927254695892334,0.5058428645133972,0.692778329372406,0.5057657361030579
423,0.6927710118293762,0.506231427192688,0.6927760624885559,0.5059171319007874
424,0.692762788772583,0.5048542618751526,0.6927648921012879,0.5064571499824524
425,0.6927441177368164,0.50538569688797,0.6927829380035401,0.5062171220779419
426,0.6927537260055542,0.5049171447753906,0.6927824230194092,0.5056971311569214
427,0.6927783350944519,0.5041628479957581,0.6927595329284668,0.5071885585784912
428,0.6927561206817627,0.50460284948349,0.692787157535553,0.5059285759925842
429,0.6927591433525085,0.5045742988586426,0.6927809715270996,0.5062628388404846
430,0.6927781171798706,0.5051228404045105,0.6927947936058044,0.5056285858154297
431,0.6927604966163635,0.5056314468383789,0.6927757062911988,0.5060999989509583
432,0.6927543597221375,0.5048542618751526,0.6927768726348877,0.5059199929237366
433,0.6927585616111755,0.5051342844963074,0.6927716789245606,0.5060856938362122
434,0.6927703132629395,0.504774272441864,0.692786244392395,0.5056314468383789
435,0.6927635054588318,0.5059800148010254,0.6927758717536926,0.5062485933303833
436,0.6927453017234803,0.5061628818511963,0.6927789626121521,0.5052685737609863
437,0.6927653369903565,0.5055171251296997,0.6927844772338867,0.5056257247924805
438,0.6927786746025085,0.5042485594749451,0.6927770967483521,0.5054085850715637
439,0.6927583365440368,0.504688560962677,0.6927672233581543,0.5064571499824524
440,0.6927772221565247,0.5039857029914856,0.6927678837776184,0.5066914558410645
441,0.6927283306121826,0.5060257315635681,0.6927861123085022,0.5061371326446533
442,0.6927656712532043,0.5048142671585083,0.6927899732589722,0.5065885782241821
443,0.6927693796157837,0.5042314529418945,0.6927692370414734,0.5063828825950623
444,0.692788887500763,0.5040199756622314,0.6927788228988647,0.5055771470069885
445,0.692763795375824,0.5036314129829407,0.6928046855926514,0.505251407623291
446,0.6927394046783447,0.5059171319007874,0.692792203426361,0.505705714225769
447,0.6927677755355834,0.5051000118255615,0.6928086218833923,0.5057571530342102
448,0.6927581958770752,0.5051114559173584,0.6927872366905212,0.5054971575737
449,0.6927328023910523,0.5065228343009949,0.6927705698013306,0.506708562374115
450,0.692756007194519,0.5056142807006836,0.692786741733551,0.505691409111023
451,0.6927527971267701,0.5061342716217041,0.6927591524124146,0.5066657066345215
452,0.6927793421745301,0.50382000207901,0.6927826676368714,0.5061571598052979
453,0.6927578821182251,0.5050542950630188,0.692769139289856,0.5068885684013367
454,0.6927423701286316,0.5059228539466858,0.6927815093994141,0.5059999823570251
455,0.6927902331352234,0.5036771297454834,0.6927805695533752,0.5063028335571289
456,0.6927752556800842,0.5036143064498901,0.6927666535377502,0.5074028372764587
457,0.6927745151519775,0.5054085850715637,0.6928221735954284,0.5051485896110535
458,0.6927717552185059,0.5055914521217346,0.6927958173751831,0.5058971643447876
459,0.6927981615066529,0.5051000118255615,0.6927713794708252,0.5068256855010986
460,0.6927598466873169,0.5049399733543396,0.6927814192771912,0.5064542889595032
461,0.6927751078605652,0.5052657127380371,0.6928224601745605,0.5053885579109192
462,0.6927338614463806,0.5055457353591919,0.6927858929634094,0.5057228803634644
463,0.6927508583068848,0.5064600110054016,0.6927850141525268,0.505754292011261
464,0.6927799649238586,0.5039799809455872,0.6927711210250854,0.506685733795166
465,0.6927576580047607,0.5063228607177734,0.6927771816253662,0.5062371492385864
466,0.6927610092163086,0.5046314001083374,0.6927828879356385,0.5046428442001343
467,0.6927623071670532,0.5047685503959656,0.6927757577896119,0.5064114332199097
468,0.6927586135864258,0.5050428509712219,0.6927780351638794,0.5053200125694275
469,0.692772539138794,0.5055114030838013,0.6927632055282593,0.506905734539032
470,0.692770266532898,0.5052886009216309,0.6927800650596618,0.5061628818511963
471,0.6927370052337647,0.5057514309883118,0.6927701630592347,0.5066056847572327
472,0.692778627872467,0.5048428773880005,0.6927866368293762,0.5059457421302795
473,0.6927594561576843,0.5053457021713257,0.692767605304718,0.5062514543533325
474,0.6927673983573913,0.5064085721969604,0.6927943596839905,0.5053743124008179
475,0.6927654476165771,0.504774272441864,0.692777738571167,0.5055542588233948
476,0.6927707886695862,0.5036771297454834,0.6927872152328491,0.5057399868965149
477,0.6927483143806458,0.5050942897796631,0.6927990550994874,0.5057571530342102
478,0.6927663173675537,0.5044714212417603,0.6927737760543823,0.5066114068031311
479,0.6927707347869873,0.504431426525116,0.6927980360984802,0.5053399801254272
480,0.6927676634788513,0.505214273929596,0.6927842154502869,0.50577712059021
481,0.6927504901885986,0.5057342648506165,0.6927707228660583,0.5058457255363464
482,0.6927808275222779,0.5047285556793213,0.692774091720581,0.506514310836792
483,0.6927500510215759,0.5052085518836975,0.692769543170929,0.5061371326446533
484,0.6927671623229981,0.5043114423751831,0.692788890838623,0.505754292011261
485,0.6927586679458618,0.5050542950630188,0.6927937755584717,0.5053457021713257
486,0.692758538722992,0.5055114030838013,0.6927779846191406,0.5062742829322815
487,0.6928577227592468,0.5060456991195679,0.6927849297523498,0.5056771636009216
488,0.6928144035339355,0.5043342709541321,0.6927898449897766,0.5056657195091248
489,0.6929541206359864,0.5064142942428589,0.6927738065719604,0.5057799816131592
490,0.6927857646942138,0.5050771236419678,0.6927854800224305,0.5055314302444458
491,0.6927596306800843,0.5043571591377258,0.6927729315757751,0.5063343048095703
492,0.6927596015930175,0.5037742853164673,0.6928012719154358,0.5056971311569214
493,0.692727135181427,0.5074314475059509,0.6927801856994629,0.5060856938362122
494,0.6929744520187378,0.5042999982833862,0.6927852244377136,0.5062000155448914
495,0.6927829723358154,0.5042142868041992,0.6927864251136779,0.5060685873031616
496,0.6927698106765747,0.5058256983757019,0.692778338432312,0.5061600208282471
497,0.6929221053123474,0.5056628584861755,0.6927757110595704,0.5063542723655701
498,0.6927466344833374,0.5049171447753906,0.6927866168022155,0.5056314468383789
499,0.6929939475059509,0.504971444606781,0.6927821850776672,0.5064828395843506
