,testloss,testacc,trainloss,trainacc
0,0.7031770963668823,0.5013200044631958,0.7008708057403564,0.5076799988746643
1,0.6872662968635559,0.5221999883651733,0.6864652633666992,0.5325800180435181
2,0.6873498411178589,0.5167400240898132,0.6862319941520691,0.5323600172996521
3,0.6872455334663391,0.5222799777984619,0.6854428243637085,0.5364400148391724
4,0.6881237692832947,0.5194000005722046,0.6860026803016662,0.5314599871635437
5,0.6874379224777222,0.5195199847221375,0.6842483096122741,0.5361800193786621
6,0.68870015001297,0.5201200246810913,0.6832973380088806,0.5392000079154968
7,0.6877736330032349,0.5198799967765808,0.6828257870674134,0.5417400002479553
8,0.690130030632019,0.5153999924659729,0.6837161102294922,0.538100004196167
9,0.6888370852470398,0.5232800245285034,0.6820123915672303,0.5412999987602234
10,0.6898746113777161,0.5181999802589417,0.6813858971595764,0.5401800274848938
11,0.6883237113952637,0.5244399905204773,0.6804418759346008,0.5417799949645996
12,0.6896566610336303,0.5156800150871277,0.6798493118286133,0.5435000061988831
13,0.6887865447998047,0.5224400162696838,0.6793931169509888,0.546239972114563
14,0.6890330309867859,0.5226799845695496,0.6783743977546692,0.5429800152778625
15,0.6886127128601074,0.5225600004196167,0.6784893765449523,0.5430600047111511
16,0.6882436814308166,0.5188800096511841,0.6776067237854004,0.5483999848365784
17,0.6888132610321045,0.5171200037002563,0.6770749516487121,0.5485000014305115
18,0.6904923644065857,0.5208799839019775,0.677298969745636,0.5486000180244446
19,0.6912967329025268,0.5138400197029114,0.6778059406280518,0.5457800030708313
20,0.6893943376541137,0.5210400223731995,0.676451563835144,0.5487599968910217
21,0.6900132856369019,0.5203199982643127,0.6774972319602967,0.5448499917984009
22,0.6906885280609131,0.5216799974441528,0.6765153074264526,0.5461000204086304
23,0.6908853282928467,0.5158799886703491,0.6759798073768616,0.5473200082778931
24,0.6894174156188965,0.5182399749755859,0.6764960641860962,0.54926997423172
25,0.6898975162506104,0.5217199921607971,0.6755958957672119,0.5506700277328491
26,0.6907286138534546,0.5182600021362305,0.6752538695335388,0.5495700240135193
27,0.691078685760498,0.5169600248336792,0.6757001972198486,0.5481600165367126
28,0.6902977147102356,0.518779993057251,0.6758474388122558,0.549049973487854
29,0.6894569635391236,0.5182600021362305,0.6746250185966491,0.5492200255393982
30,0.688818540096283,0.5218999981880188,0.6736242694854736,0.551639974117279
31,0.6887110900878907,0.522819995880127,0.6739220733642578,0.5525100231170654
32,0.6899397225379944,0.5183799862861633,0.6727023253440857,0.5539600253105164
33,0.6898912978172302,0.5202000141143799,0.670488263130188,0.5546500086784363
34,0.6898247194290161,0.5194399952888489,0.6719676465988159,0.55308997631073
35,0.6913226752281189,0.519819974899292,0.6703220224380493,0.5549899935722351
36,0.6902984571456909,0.5245400071144104,0.6682425236701965,0.5567899942398071
37,0.6917736396789551,0.5195000171661377,0.6676890282630921,0.557479977607727
38,0.6906753687858581,0.5221400260925293,0.6665741076469421,0.559939980506897
39,0.6901982069015503,0.5194600224494934,0.6657599363327026,0.5586900115013123
40,0.6892842302322387,0.5253999829292297,0.6651032285690308,0.56045001745224
41,0.6906333217620849,0.5237600207328796,0.6650268306732178,0.5605400204658508
42,0.6900270509719849,0.5230399966239929,0.663358377456665,0.5632100105285645
43,0.6910559668540954,0.523360013961792,0.6629393057823181,0.5648599863052368
44,0.6927503414154053,0.5178200006484985,0.6625219488143921,0.5669599771499634
45,0.6926408157348632,0.524619996547699,0.6607068815231323,0.5682600140571594
46,0.6914621558189392,0.5227400064468384,0.6590546927452088,0.5690100193023682
47,0.6913547787666321,0.5246800184249878,0.6577046637535096,0.5709699988365173
48,0.6915662212371826,0.5209000110626221,0.6583361477851868,0.5705199837684631
49,0.6905497527122497,0.5281400084495544,0.6566898021697998,0.5728899836540222
50,0.6912799172401428,0.5243600010871887,0.6567192821502685,0.5754799842834473
51,0.691415461063385,0.5231800079345703,0.6563648571968078,0.5746999979019165
52,0.6941448240280151,0.5208799839019775,0.6560552501678467,0.5750100016593933
53,0.693808961391449,0.5259400010108948,0.6531892852783203,0.5759400129318237
54,0.6913739972114563,0.5270199775695801,0.6531652736663819,0.5742999911308289
55,0.6916695852279663,0.5243399739265442,0.6531359319686889,0.5740100145339966
56,0.6927705321311951,0.5209599733352661,0.6534455308914184,0.574150025844574
57,0.6912053918838501,0.5269799828529358,0.6518429169654846,0.5762500166893005
58,0.6933072319030762,0.5248600244522095,0.6531191697120666,0.5735399723052979
59,0.6923371810913086,0.5224000215530396,0.6520488896369934,0.5775700211524963
60,0.6926157512664795,0.5241400003433228,0.6513935871124268,0.575689971446991
61,0.6916545166969299,0.5246000289916992,0.6520470838546752,0.5755100250244141
62,0.6927213115692139,0.5239599943161011,0.6501739645004272,0.5764399766921997
63,0.6929185185432434,0.5222600102424622,0.6517630558013916,0.5771399736404419
64,0.6929219226837158,0.523360013961792,0.6498413014411927,0.5760499835014343
65,0.6916321668624877,0.5242800116539001,0.6495685477256775,0.5768799781799316
66,0.6934521164894104,0.5224800109863281,0.6499937777519226,0.5759599804878235
67,0.692375428199768,0.5273799896240234,0.6486847310066223,0.5764399766921997
68,0.6922410588264465,0.5271000266075134,0.6480570693016052,0.5767300128936768
69,0.692696744441986,0.5264999866485596,0.6488185653686523,0.5755699872970581
70,0.6931308126449585,0.5219799876213074,0.64894451379776,0.5776799917221069
71,0.693172601222992,0.5262799859046936,0.6490706424713135,0.5754799842834473
72,0.6950524616241455,0.5188000202178955,0.6476892008781433,0.5770800113677979
73,0.6936476812362671,0.5229200124740601,0.6478429660797119,0.5756499767303467
74,0.6939408707618714,0.5252799987792969,0.6474673142433166,0.57778000831604
75,0.6937441935539246,0.5205600261688232,0.6472580609321594,0.5777199864387512
76,0.6937732963562012,0.522059977054596,0.6476337299346924,0.5771099925041199
77,0.6932807641029358,0.5245599746704102,0.6461985588073731,0.5777900218963623
78,0.6944898958206177,0.5209599733352661,0.6465135884284973,0.5783299803733826
79,0.6929350228309631,0.5226799845695496,0.6453637328147889,0.5779899954795837
80,0.6927241449356079,0.5267599821090698,0.6450738577842713,0.5769500136375427
81,0.6946931638717652,0.5210199952125549,0.6461552767753601,0.5776600241661072
82,0.6940286478996277,0.5250599980354309,0.645397846698761,0.5779600143432617
83,0.693886700630188,0.5258399844169617,0.6442735319137574,0.5766599774360657
84,0.6938436675071716,0.5249800086021423,0.6452528166770936,0.5755699872970581
85,0.6931499209403992,0.5263199806213379,0.6449508361816406,0.5786899924278259
86,0.6929064011573791,0.5264999866485596,0.6456835341453552,0.576770007610321
87,0.6928209562301636,0.5238800048828125,0.643544529914856,0.5777699947357178
88,0.6932792797088623,0.5198400020599365,0.6451404972076416,0.5762699842453003
89,0.6942534508705139,0.5224400162696838,0.6456673345565795,0.5769100189208984
90,0.6946292304992676,0.5249800086021423,0.6458197183609009,0.574970006942749
91,0.6951596546173096,0.5240200161933899,0.6437727074623107,0.5789200067520142
92,0.6945093502998352,0.5259000062942505,0.6455074429512024,0.5767300128936768
93,0.6931076073646545,0.5242199897766113,0.644129683971405,0.5759900212287903
94,0.6932109279632568,0.5225399732589722,0.6431812300682068,0.5768899917602539
95,0.6945184173583985,0.5233399868011475,0.6435733299255371,0.5774099826812744
96,0.6924661526679993,0.5261600017547607,0.6425717754364013,0.5770699977874756
97,0.6934733648300171,0.5260000228881836,0.6434601993560791,0.5782999992370605
98,0.6933654336929321,0.5278800129890442,0.6422982625961303,0.5777699947357178
99,0.6931903443336487,0.5288400053977966,0.6435582728385926,0.5778700113296509
100,0.6936216897964478,0.5234799981117249,0.6425424103736878,0.5782999992370605
101,0.6927869172096253,0.5276200175285339,0.6422638092041015,0.5774999856948853
102,0.693634460926056,0.5266199707984924,0.6423823943138123,0.5787500143051147
103,0.6941620807647705,0.5259799957275391,0.6438442001342773,0.5777599811553955
104,0.6944339952468872,0.5259400010108948,0.6434780025482177,0.5757200121879578
105,0.6953657126426697,0.5249199867248535,0.642683319568634,0.5774099826812744
106,0.6961306056976319,0.5262600183486938,0.6432792224884033,0.5760499835014343
107,0.6947270584106445,0.5218600034713745,0.6437626342773437,0.5771700143814087
108,0.6951591310501098,0.5291600227355957,0.6417359194755554,0.578029990196228
109,0.6931953883171081,0.5242400169372559,0.6415327830314637,0.5788099765777588
110,0.6940241289138794,0.5235999822616577,0.6427571425437927,0.576449990272522
111,0.6939046583175659,0.5245000123977661,0.6418018856048584,0.5777400135993958
112,0.6934334373474121,0.5242999792098999,0.6412471160888672,0.579010009765625
113,0.6940373005867004,0.5249000191688538,0.642050847530365,0.5773199796676636
114,0.6943985209465027,0.5231800079345703,0.6416676020622254,0.5773400068283081
115,0.6938593535423279,0.5277199745178223,0.6425767164230347,0.5772899985313416
116,0.6937188372612,0.5233399868011475,0.6414873785972596,0.5771700143814087
117,0.6941202621459961,0.525879979133606,0.641007493019104,0.5791299939155579
118,0.6935422563552857,0.5286399722099304,0.641185950756073,0.5792199969291687
119,0.6950161881446838,0.527999997138977,0.6404663228988647,0.5784599781036377
120,0.6947841958999634,0.5261600017547607,0.6425922565460205,0.5775899887084961
121,0.6933392190933227,0.5281599760055542,0.6408701057434082,0.5779600143432617
122,0.6950361166000366,0.5257599949836731,0.6408607687950134,0.5785499811172485
123,0.6934607591629028,0.5242999792098999,0.6400356974601745,0.5780900120735168
124,0.6940516800880432,0.5247200131416321,0.6406132373809814,0.5793300271034241
125,0.6938782558441162,0.5235400199890137,0.640230230808258,0.5790600180625916
126,0.6952299671173096,0.5248399972915649,0.6401025466918945,0.5784299969673157
127,0.6945740036964416,0.5249999761581421,0.639733519077301,0.5785199999809265
128,0.6957397427558899,0.5267999768257141,0.6430135989189147,0.5769100189208984
129,0.6948227062225342,0.5232200026512146,0.6404149293899536,0.57778000831604
130,0.6947473063468933,0.5234000086784363,0.6403294239044189,0.5772200226783752
131,0.694095947265625,0.5256199836730957,0.6409974417686463,0.5782600045204163
132,0.6953123850822449,0.5239599943161011,0.6399332361221314,0.5788900256156921
133,0.6946367812156677,0.5263199806213379,0.6386034560203552,0.5795300006866455
134,0.6942647714614868,0.5274199843406677,0.6401695866584778,0.577459990978241
135,0.6938315305709839,0.527400016784668,0.6396381578445435,0.5791800022125244
136,0.6947848167419434,0.523419976234436,0.6411126766204834,0.5785700082778931
137,0.6945940895080567,0.5265799760818481,0.6395091857910157,0.579230010509491
138,0.6930380792617797,0.5284199714660645,0.6394709715843201,0.5774000287055969
139,0.6956714253425598,0.5231000185012817,0.6390066514015198,0.5787400007247925
140,0.6955157141685486,0.5250999927520752,0.6389425354003906,0.5794900059700012
141,0.6950713491439819,0.5262399911880493,0.6386988062858582,0.5771999955177307
142,0.6963795628547669,0.5280200242996216,0.639104163646698,0.5792999863624573
143,0.694501049041748,0.5258399844169617,0.6389098544120788,0.5784299969673157
144,0.6950214729309082,0.5256800055503845,0.6396808075904846,0.5775799751281738
145,0.6958993368148804,0.5298799872398376,0.6384967021942138,0.578760027885437
146,0.6944767322540283,0.5245599746704102,0.6381307654380798,0.5804299712181091
147,0.6955168957710266,0.5302000045776367,0.6377909970283508,0.579039990901947
148,0.6945574865341186,0.5260599851608276,0.6389482750892639,0.5796599984169006
149,0.6954677877426148,0.5268800258636475,0.6390892162322998,0.5796700119972229
150,0.6955859756469727,0.5275800228118896,0.6378830819129944,0.5793200135231018
151,0.6944295239448547,0.5276200175285339,0.6375207390785217,0.5795999765396118
152,0.6960944943428039,0.526639997959137,0.6384527053833008,0.578499972820282
153,0.6966643433570862,0.5263199806213379,0.6378404741287231,0.5796999931335449
154,0.6961804490089416,0.5290600061416626,0.6384868235588074,0.5788999795913696
155,0.6958255863189697,0.5281800031661987,0.6373329944610596,0.5788699984550476
156,0.6953440103530883,0.52920001745224,0.6377491307258606,0.5791100263595581
157,0.6961409978866577,0.524619996547699,0.6373501405715942,0.5800999999046326
158,0.6956212329864502,0.5268800258636475,0.6378945388793945,0.5790200233459473
159,0.6957727098464965,0.5257200002670288,0.6374263014793397,0.5796800255775452
160,0.6952816362380981,0.527899980545044,0.6395552597045898,0.5771099925041199
161,0.6967470016479492,0.526199996471405,0.6382216300964355,0.5784199833869934
162,0.6958435521125793,0.5286200046539307,0.6378330636024475,0.5780699849128723
163,0.6965524830818176,0.5274199843406677,0.6371156740188598,0.5780199766159058
164,0.6966773209571838,0.5297999978065491,0.6372284116744995,0.579069972038269
165,0.6952299747467041,0.5281400084495544,0.6372209668159485,0.579069972038269
166,0.695356662273407,0.5275800228118896,0.6373034734725952,0.5790500044822693
167,0.6954824509620666,0.5293800234794617,0.6373715062141418,0.5788000226020813
168,0.6961338415145873,0.5287399888038635,0.6372057843208313,0.5786600112915039
169,0.6958871822357178,0.5316200256347656,0.6371086745262146,0.5781499743461609
170,0.6958030829429627,0.5274800062179565,0.6374976720809936,0.5798799991607666
171,0.6965806107521058,0.5296000242233276,0.6371330180168152,0.5800300240516663
172,0.6946888089179992,0.528980016708374,0.636986177444458,0.5786499977111816
173,0.6964820914268494,0.528980016708374,0.6376192884445191,0.5788499712944031
174,0.6952966899871826,0.5262600183486938,0.6368611373901367,0.5794900059700012
175,0.6960138278007507,0.5274400115013123,0.6368634819984436,0.5802000164985657
176,0.6957913370132446,0.525879979133606,0.6366696200370788,0.5796999931335449
177,0.6972606935501099,0.5268200039863586,0.636982611656189,0.5788300037384033
178,0.6965356941223144,0.5271199941635132,0.6370719618797303,0.5783200263977051
179,0.6951400856971741,0.5279600024223328,0.6363215646743774,0.5787699818611145
180,0.6970935091972351,0.5242400169372559,0.6375194683074951,0.5799300074577332
181,0.6952575607299805,0.5266799926757812,0.6375094542503357,0.5798599720001221
182,0.6963081164360047,0.5296599864959717,0.6363726286888123,0.5796999931335449
183,0.6962386379241944,0.5316600203514099,0.6366366381645203,0.5789999961853027
184,0.6967269830703735,0.5284799933433533,0.6359393572807313,0.579800009727478
185,0.6955058751106262,0.5283600091934204,0.6360492253303528,0.5799400210380554
186,0.6960040364265442,0.5275200009346008,0.6365178284645081,0.5803200006484985
187,0.6970633482933044,0.5288599729537964,0.6364151964187622,0.5791000127792358
188,0.6961218175888062,0.5274800062179565,0.6361246600151061,0.578980028629303
189,0.6962280402183533,0.5271199941635132,0.6372702522277832,0.5779399871826172
190,0.697210825920105,0.525879979133606,0.6367740559577942,0.57955002784729
191,0.6963659048080444,0.5289999842643738,0.6358071870803833,0.5794900059700012
192,0.6962821035385132,0.5277799963951111,0.6361525745391846,0.5798400044441223
193,0.6956731147766113,0.527899980545044,0.6365165677070618,0.5790600180625916
194,0.6968080244064331,0.5271999835968018,0.6360384368896485,0.5803899765014648
195,0.6948931736946106,0.5293400287628174,0.6360182723999024,0.5785300135612488
196,0.6954379653930665,0.5272600054740906,0.6364867973327637,0.579800009727478
197,0.6968529706001282,0.5279800295829773,0.6355269427299499,0.5797600150108337
198,0.6956423234939575,0.5282800197601318,0.6380745897293091,0.5780100226402283
199,0.6963440990447998,0.5283600091934204,0.6350916152000428,0.58024001121521
200,0.6954701700210572,0.5277199745178223,0.6360563659667968,0.5786899924278259
201,0.6961264929771424,0.5301200151443481,0.6356818890571594,0.5806499719619751
202,0.695548966884613,0.5296400189399719,0.6366296119689941,0.5794100165367126
203,0.6962242665290832,0.5286800265312195,0.635658561706543,0.5791100263595581
204,0.6955579838752747,0.5271599888801575,0.6362012481689453,0.5794600248336792
205,0.6962626371383667,0.5267000198364258,0.6359979567527771,0.5795999765396118
206,0.6964524006843567,0.5288800001144409,0.6355910449028015,0.5793399810791016
207,0.6961444616317749,0.5288800001144409,0.6364911370277405,0.5789899826049805
208,0.6960452361106872,0.5287200212478638,0.6352410612106323,0.5785800218582153
209,0.6959144687652588,0.530019998550415,0.6357721667289734,0.5784100294113159
210,0.696738664150238,0.5263000130653381,0.6349209060668946,0.5795800089836121
211,0.6961918826103211,0.5296800136566162,0.6363655223846435,0.5789099931716919
212,0.6966100769042969,0.5262799859046936,0.6358806223869323,0.5788300037384033
213,0.6967735075950623,0.5277199745178223,0.6353532056808472,0.5804299712181091
214,0.696052140712738,0.5283399820327759,0.6363458337783814,0.5788900256156921
215,0.695825463294983,0.527899980545044,0.6349607400894165,0.5784900188446045
216,0.6957717518806458,0.5260800123214722,0.6353600573539734,0.5801299810409546
217,0.6957232084274292,0.5271400213241577,0.6350454936027526,0.577970027923584
218,0.6968369469642639,0.5292800068855286,0.635228832244873,0.5794399976730347
219,0.6960714921951294,0.5282800197601318,0.6347616620063782,0.5793099999427795
