,testloss,testacc,trainloss,trainacc
0,0.6926323647499084,0.5070080161094666,0.6927271213531494,0.5055919885635376
1,0.6926510901451111,0.5059279799461365,0.6926916875839233,0.5075119733810425
2,0.6925986967086792,0.5062959790229797,0.6926989350318908,0.5059959888458252
3,0.6926525311470032,0.5039759874343872,0.6926933360099793,0.5065400004386902
4,0.6926660680770874,0.5048559904098511,0.6927238311767578,0.5061920285224915
5,0.6926603708267212,0.5062080025672913,0.6927113008499145,0.5065479874610901
6,0.6926703586578369,0.5060319900512695,0.692678740978241,0.5064839720726013
7,0.6926454687118531,0.5046319961547852,0.6927037301063538,0.5068759918212891
8,0.6926743845939636,0.5062080025672913,0.6927148470878601,0.5061920285224915
9,0.6926525759696961,0.5060639977455139,0.6927239446640014,0.5063480138778687
10,0.6926417651176453,0.5061039924621582,0.6926915321350098,0.5064039826393127
11,0.6926427688598633,0.5055599808692932,0.6927097115516663,0.5067039728164673
12,0.6926654014587402,0.5062559843063354,0.6926866550445556,0.5067960023880005
13,0.6926647791862488,0.5058000087738037,0.6927008023262023,0.5065500140190125
14,0.6934386096000671,0.5058959722518921,0.6935120811462402,0.5040630102157593
15,0.6926607232093811,0.5056560039520264,0.6927271571159362,0.5064160227775574
16,0.6926620082855225,0.5053359866142273,0.6927376275062561,0.5057119727134705
17,0.6926807389259338,0.5039359927177429,0.6927224917411804,0.5060319900512695
18,0.692692147731781,0.5049440264701843,0.6927106037139893,0.5062199831008911
19,0.692694550037384,0.506928026676178,0.6927676367759704,0.506301999092102
20,0.6926843800544739,0.5047680139541626,0.6926908750534058,0.5075799822807312
21,0.6926552910804749,0.506168007850647,0.6927105932235718,0.5065280199050903
22,0.6926594109535217,0.5061039924621582,0.6926890397071839,0.5066319704055786
23,0.6926279902458191,0.5059279799461365,0.6927165851593018,0.5055800080299377
24,0.6927114853858948,0.5054640173912048,0.692707483291626,0.5069640278816223
25,0.6926257810592651,0.5063520073890686,0.6926825199127197,0.5063239932060242
26,0.6926479125022889,0.5054000020027161,0.6926998238563538,0.5067279934883118
27,0.6927080035209656,0.5045120120048523,0.6926961216926575,0.5073800086975098
28,0.6926518530845642,0.5052480101585388,0.6927279396057129,0.5062879920005798
29,0.6926408386230469,0.5073840022087097,0.6927113270759583,0.5066840052604675
30,0.6926382584571839,0.5069360136985779,0.6927268953323364,0.5053880214691162
31,0.6934011573791504,0.5058779716491699,0.6935391755104064,0.5030519962310791
32,0.6926881546974182,0.50518399477005,0.692693685054779,0.5064799785614014
33,0.692641227722168,0.506816029548645,0.6927105264663697,0.5060319900512695
34,0.6926669745445252,0.5070639848709106,0.692682641029358,0.507203996181488
35,0.6926642985343933,0.506991982460022,0.6927160897254944,0.5063599944114685
36,0.6926774697303772,0.5064160227775574,0.6927177495956421,0.5060799717903137
37,0.6927262172698975,0.5053520202636719,0.6927320351600647,0.506883978843689
38,0.6926848721504212,0.5066239833831787,0.6926962866783142,0.5062559843063354
39,0.6926781425476074,0.5056080222129822,0.6927148699760437,0.5062040090560913
40,0.6929059624671936,0.5048760175704956,0.6928449478149414,0.5055180191993713
41,0.692664366722107,0.5074880123138428,0.6926998934745788,0.5065640211105347
42,0.6926189894676209,0.5074560046195984,0.6927093281745911,0.5069040060043335
43,0.6926908745765686,0.5051440000534058,0.6926991033554077,0.5070359706878662
44,0.6926721682548523,0.505128026008606,0.6927088441848754,0.5057880282402039
45,0.6926329140663147,0.5065680146217346,0.6926955480575562,0.5068920254707336
46,0.6926666421890258,0.5063760280609131,0.6926919136047364,0.5071039795875549
47,0.6926311235427857,0.5051519870758057,0.6927238893508911,0.5059080123901367
48,0.6926588010787964,0.5058799982070923,0.6927317357063294,0.506443977355957
49,0.6926359362602234,0.5075039863586426,0.6926995301246643,0.5065839886665344
50,0.6926253643035889,0.5059599876403809,0.6927170324325561,0.5060679912567139
51,0.6926951403617859,0.5042639970779419,0.6926953811645508,0.5072600245475769
52,0.6926728868484497,0.504423975944519,0.6927236862182617,0.5063199996948242
53,0.6926625509262085,0.5054240226745605,0.6927012929916382,0.5064759850502014
54,0.6926847739219666,0.5037919878959656,0.6927251362800598,0.5058720111846924
55,0.6926826543807983,0.5055760145187378,0.6927246527671814,0.5067920088768005
56,0.6926614308357238,0.5054159760475159,0.6926738238334655,0.5074399709701538
57,0.6926867651939392,0.5041519999504089,0.6927172050476075,0.5068079829216003
58,0.6926716833114624,0.5067920088768005,0.6927131810188294,0.5061439871788025
59,0.6926663017272949,0.5054960250854492,0.6927129988670349,0.5064679980278015
60,0.6926158456802368,0.5060160160064697,0.6927196583747863,0.5053880214691162
61,0.6926576418876648,0.504971981048584,0.6927224006652832,0.5061039924621582
62,0.692659658908844,0.5068719983100891,0.6927097682952881,0.506492018699646
63,0.6926567916870117,0.5050320029258728,0.6927305049896241,0.5048519968986511
64,0.6926731605529786,0.5065760016441345,0.6927070846557617,0.5061079859733582
65,0.6926816549301148,0.5056480169296265,0.6927235441207886,0.506708025932312
66,0.6926803917884826,0.5045120120048523,0.6927077903747558,0.5067440271377563
67,0.6926563339233398,0.5059999823570251,0.6927265615463257,0.5064200162887573
68,0.6926651291847229,0.5065919756889343,0.69270121717453,0.5065439939498901
69,0.6926512117385865,0.5062080025672913,0.6927240829467773,0.5055999755859375
70,0.6926614112854004,0.5071120262145996,0.6927031903266907,0.5069040060043335
71,0.6926523561477661,0.5059999823570251,0.6927356748580933,0.5059800148010254
72,0.6926952705383301,0.506928026676178,0.6927104172706604,0.5063599944114685
73,0.6926558113098145,0.5052800178527832,0.6927195720672608,0.5066760182380676
74,0.692649745464325,0.5061479806900024,0.6926949625015258,0.506775975227356
75,0.6926587533950805,0.5045040249824524,0.6927094178199769,0.5061519742012024
76,0.6926488404273987,0.5065119862556458,0.692720510482788,0.5067520141601562
77,0.6926589503288269,0.5069839954376221,0.692690966129303,0.5064560174942017
78,0.6926799273490906,0.5054399967193604,0.6927039632797242,0.5070160031318665
79,0.6926892323493957,0.5049039721488953,0.6927071461677551,0.5056080222129822
80,0.6926179008483887,0.5072799921035767,0.6927253704071045,0.5061439871788025
81,0.6926530151367187,0.5064719915390015,0.6927103996276855,0.5075920224189758
82,0.692652663230896,0.5075759887695312,0.6927100248336792,0.5067639946937561
83,0.6926684422492981,0.5046160221099854,0.6927165746688843,0.5066080093383789
84,0.6926807732582092,0.5052000284194946,0.6927245783805848,0.5060439705848694
85,0.6926438879966735,0.5072559714317322,0.6927174868583679,0.5057039856910706
86,0.6926610727310181,0.5062400102615356,0.6927133054733277,0.5064280033111572
87,0.6926394219398498,0.5074080228805542,0.6926897287368774,0.5067200064659119
88,0.6926728649139404,0.5053840279579163,0.6926931238174439,0.5079320073127747
89,0.6926465477943421,0.5074800252914429,0.6927356715202332,0.505515992641449
90,0.6926974625587463,0.5041199922561646,0.6927036070823669,0.5068640112876892
91,0.6926237497329711,0.5059599876403809,0.6927038459777832,0.5067800283432007
92,0.6926547403335571,0.5049200057983398,0.6927043333053589,0.5068359971046448
93,0.6926419348716736,0.5065039992332458,0.6926897501945496,0.5069400072097778
94,0.6926693029403687,0.5055919885635376,0.692687105178833,0.5076519846916199
95,0.6926634864807129,0.5050240159034729,0.6927030358314514,0.5059360265731812
96,0.692639681816101,0.5070400238037109,0.6926944832801819,0.5068680047988892
97,0.6926434574127197,0.506879985332489,0.6927283086776733,0.5065919756889343
98,0.6926525049209594,0.5050079822540283,0.6927036881446839,0.5066360235214233
99,0.6926557502746582,0.5053840279579163,0.692694640636444,0.5063959956169128
100,0.6926919341087341,0.5057039856910706,0.6927179675102234,0.506164014339447
101,0.6926522679328918,0.5066480040550232,0.6927305188179016,0.5065919756889343
102,0.6926577019691468,0.5060480237007141,0.692700122833252,0.5065039992332458
103,0.6926917138099671,0.5048879981040955,0.6926983389854431,0.5064079761505127
104,0.692658706665039,0.5056639909744263,0.6926760697364807,0.5066919922828674
105,0.6926559343338012,0.5062400102615356,0.6927066235542297,0.5064759850502014
106,0.6926486926078796,0.5072640180587769,0.6927112865447999,0.5063160061836243
107,0.6926408934593201,0.505623996257782,0.6927229266166687,0.5051239728927612
108,0.6926611428260803,0.5045120120048523,0.6927179074287415,0.5064399838447571
109,0.6926837091445923,0.50518399477005,0.6927290897369385,0.5060080289840698
110,0.6926574540138245,0.5054720044136047,0.6927170248031617,0.5063959956169128
111,0.6926823472976684,0.5046640038490295,0.6926943092346192,0.5067399740219116
112,0.6926313333511352,0.5058720111846924,0.6927210173606873,0.5055080056190491
113,0.6926627955436706,0.5044159889221191,0.6927000994682312,0.5069119930267334
114,0.6926882300376892,0.505511999130249,0.692718132019043,0.5060279965400696
115,0.6926960887908935,0.5056160092353821,0.6927121515274048,0.5062080025672913
116,0.6926593494415283,0.5053200125694275,0.6926988101005555,0.5065640211105347
117,0.6926703233718872,0.5052000284194946,0.6926927466392517,0.5074639916419983
118,0.6926383318901062,0.5070880055427551,0.6927035446166993,0.5068519711494446
119,0.6926962060928344,0.5053359866142273,0.6926868534088135,0.5067520141601562
120,0.6927083077430725,0.5053200125694275,0.6927280139923095,0.5056440234184265
121,0.6926980123519898,0.5062559843063354,0.692699119091034,0.506600022315979
122,0.6926413569450378,0.5064560174942017,0.6926955208778381,0.5079079866409302
123,0.6926676044464112,0.5072399973869324,0.6927073988914489,0.5064280033111572
124,0.6926333556175231,0.5056480169296265,0.6927250447273254,0.5057600140571594
125,0.692678897857666,0.5040799975395203,0.6927117285728455,0.5057759881019592
126,0.6926527371406556,0.505016028881073,0.6926955833435059,0.5065919756889343
127,0.6926488251686096,0.5068399906158447,0.6927086544036866,0.5061560273170471
128,0.6926599144935608,0.5060799717903137,0.6927342920303344,0.506380021572113
129,0.692640145778656,0.5062800049781799,0.6927027878761292,0.5069040060043335
130,0.6926878480911255,0.5063199996948242,0.6927224731445313,0.505728006362915
131,0.692681459903717,0.5052080154418945,0.6926983466148376,0.5072479844093323
132,0.692670000076294,0.5062639713287354,0.6927079195976258,0.5061799883842468
133,0.6926694202423096,0.5047600269317627,0.6927105774879455,0.5060880184173584
134,0.6926584005355835,0.5058079957962036,0.6927073917388916,0.5069239735603333
135,0.6926641640663147,0.503928005695343,0.6926999049186706,0.5073279738426208
136,0.6926535224914551,0.5063040256500244,0.6926926236152648,0.5059599876403809
137,0.6926880755424499,0.504863977432251,0.6927039756774902,0.5062919855117798
138,0.692668480873108,0.5052719712257385,0.6927067065238952,0.5066159963607788
139,0.6926888785362244,0.5063999891281128,0.6926956243515014,0.508072018623352
140,0.6926944136619568,0.5056719779968262,0.6927220816612244,0.5061920285224915
141,0.6926452703475953,0.5055440068244934,0.6926859993934631,0.5066319704055786
142,0.6926708760261535,0.5062479972839355,0.6927314829826355,0.5061759948730469
143,0.6926539511680603,0.5064319968223572,0.6927068600654602,0.506771981716156
144,0.6926362991333008,0.5057759881019592,0.6926821475028991,0.5072159767150879
145,0.6926870079040527,0.5048320293426514,0.6926873455047607,0.5073720216751099
146,0.6926371560096741,0.5047600269317627,0.6927031078338624,0.5065439939498901
147,0.6926537132263184,0.5064719915390015,0.6927223114967346,0.5057680010795593
148,0.692687924861908,0.5053200125694275,0.6926956677436829,0.5068039894104004
149,0.6926760449409485,0.5049120187759399,0.692717547416687,0.5062440037727356
150,0.6926678309440613,0.5060160160064697,0.6927045307159424,0.5069519877433777
151,0.6926513881683349,0.5045120120048523,0.6927231073379516,0.506879985332489
152,0.6926513419151307,0.5062239766120911,0.6927398862838745,0.5066120028495789
153,0.6926756057739257,0.5064240097999573,0.6927201356887818,0.5075640082359314
154,0.6926819014549256,0.5045440196990967,0.6927007675170899,0.5065479874610901
155,0.6926754350662232,0.5048239827156067,0.6926802082061767,0.5070000290870667
156,0.6926534748077393,0.5058879852294922,0.6927295789718628,0.5059639811515808
157,0.6926669454574585,0.5056639909744263,0.6926993479728699,0.5074520111083984
158,0.6926970953941345,0.505620002746582,0.6927206234931946,0.506164014339447
159,0.6926361021995544,0.5054000020027161,0.6927299299240113,0.5065640211105347
160,0.6926811265945435,0.5046399831771851,0.6927125067710876,0.5058879852294922
161,0.6926851415634155,0.5047600269317627,0.6926972761154174,0.5073400139808655
162,0.6926572170257569,0.5045279860496521,0.6926920742988586,0.5066319704055786
163,0.6926588916778564,0.5063279867172241,0.6927188434600831,0.5065199732780457
164,0.692645251750946,0.5070880055427551,0.6927106318473816,0.5061039924621582
165,0.6926987371444702,0.5060160160064697,0.6926969194412231,0.5070239901542664
166,0.6926716284751893,0.5057439804077148,0.6926887640953064,0.5076799988746643
167,0.6926738028526306,0.5057839751243591,0.6927186522483826,0.5059760212898254
168,0.692702929019928,0.5041840076446533,0.6927150964736939,0.5070840120315552
169,0.6926390199661255,0.5062080025672913,0.6926936831474304,0.5064520239830017
170,0.6926314172744751,0.5064160227775574,0.6926903786659241,0.5072320103645325
171,0.6926483936309814,0.5059760212898254,0.69271257686615,0.5067800283432007
172,0.6926507186889649,0.5063679814338684,0.6927059454917908,0.5067160129547119
173,0.6926449112892151,0.5065680146217346,0.6927172207832336,0.505944013595581
174,0.69266872549057,0.5057039856910706,0.6927070856094361,0.5067840218544006
175,0.6926845216751099,0.5059679746627808,0.692704972743988,0.5066440105438232
176,0.6926422395706177,0.5057520270347595,0.6927118873596192,0.5063480138778687
177,0.6926657290458679,0.5054640173912048,0.6927103323936462,0.5063520073890686
178,0.6926620573997497,0.5062959790229797,0.6927204165458679,0.506164014339447
179,0.6926548829078675,0.504535973072052,0.6927178087234497,0.5062199831008911
180,0.6927023873329162,0.504472017288208,0.6927059297561645,0.5061720013618469
181,0.6926699900627136,0.5051519870758057,0.6927086281776428,0.5066760182380676
182,0.6926730074882508,0.5047680139541626,0.692723648071289,0.5053279995918274
183,0.6926681842803956,0.5052880048751831,0.6926956191062927,0.5070679783821106
184,0.6926698656082153,0.5060160160064697,0.6926887454986572,0.5069159865379333
185,0.6926728100776672,0.5051599740982056,0.6927227706909179,0.506663978099823
186,0.69266641664505,0.5063440203666687,0.6926995296478271,0.5070120096206665
187,0.6926503677368164,0.5063199996948242,0.6927317862510681,0.5056480169296265
188,0.6926747488975525,0.5044080018997192,0.6927310857772827,0.5058919787406921
189,0.6926822071075439,0.5051599740982056,0.6927305221557617,0.5053240060806274
190,0.692664340019226,0.5049440264701843,0.6926886758804321,0.5067920088768005
191,0.6926966109275818,0.5052000284194946,0.6926855573654175,0.507148027420044
192,0.6926804137229919,0.5054879784584045,0.6926957921981811,0.5066800117492676
193,0.6926501955986023,0.5062400102615356,0.6927377519607544,0.5066519975662231
194,0.6927483258247376,0.5026559829711914,0.6927211127281189,0.5056040287017822
195,0.6926697187423706,0.5052080154418945,0.6927131962776184,0.5058799982070923
196,0.6926570796966552,0.5053279995918274,0.6926807198524475,0.5074399709701538
197,0.6926618099212647,0.5063040256500244,0.6927133026123047,0.5058959722518921
198,0.692635293006897,0.5058879852294922,0.6927231254577637,0.5059360265731812
199,0.6926788902282714,0.5062080025672913,0.6926921582221985,0.5072879791259766
200,0.692661141872406,0.5059360265731812,0.6926990299224853,0.5059599876403809
201,0.6926220269203186,0.5070400238037109,0.6927015733718872,0.5067359805107117
202,0.6926463589668274,0.5061920285224915,0.6927146134376526,0.5059000253677368
203,0.6926836009025574,0.5046319961547852,0.6927137651443481,0.5069000124931335
204,0.6926693472862243,0.5057600140571594,0.6927209324836731,0.5058680176734924
205,0.69266401720047,0.5060319900512695,0.6927135343551636,0.5069720149040222
206,0.6926356506347656,0.5063520073890686,0.6927178502082825,0.5062919855117798
207,0.6926274156570434,0.5072799921035767,0.6927174830436706,0.5057520270347595
208,0.6926233878135681,0.5059279799461365,0.6927209162712097,0.5056359767913818
209,0.692683473110199,0.5049279928207397,0.6926923127174377,0.5058879852294922
210,0.6926921992301941,0.504751980304718,0.6927216935157776,0.5070400238037109
211,0.6926631531715393,0.5052719712257385,0.6927235903739929,0.5062199831008911
212,0.6926317296028137,0.508247971534729,0.69272234249115,0.5058879852294922
213,0.6926520438194275,0.505952000617981,0.6927035846710206,0.5068079829216003
214,0.6926461219787597,0.506767988204956,0.6927141933441162,0.5069360136985779
215,0.692675832748413,0.5065439939498901,0.6927140974998474,0.5062400102615356
216,0.692674566745758,0.5065199732780457,0.692721727848053,0.5063279867172241
217,0.692649730682373,0.5065360069274902,0.6927102541923523,0.505840003490448
218,0.6926907777786255,0.5044400095939636,0.6927030301094055,0.5072159767150879
219,0.692664312839508,0.5049520134925842,0.6927260451316833,0.5059720277786255
220,0.6926734790802002,0.5055440068244934,0.6927228074073791,0.5056040287017822
221,0.6926370186805725,0.5069119930267334,0.6927025966644287,0.5065919756889343
222,0.6927181739807129,0.5044159889221191,0.6927221159934998,0.5056719779968262
223,0.6926649627685547,0.5071200132369995,0.6926956329345703,0.5062280297279358
224,0.6926799168586731,0.5047760009765625,0.6927068591117859,0.5057880282402039
225,0.692653503894806,0.5065199732780457,0.6927134809494019,0.5062320232391357
226,0.6926531572341919,0.5059360265731812,0.6927075090408326,0.5067960023880005
227,0.6926170449256897,0.5075119733810425,0.6927119393348694,0.5060719847679138
228,0.6926997551918029,0.5060880184173584,0.692720278263092,0.5062559843063354
229,0.6926470184326172,0.5059279799461365,0.6926988129615783,0.5072720050811768
230,0.6926361813545227,0.5073440074920654,0.6927192831039428,0.5052719712257385
231,0.6926702060699463,0.5062559843063354,0.6927160410881043,0.5066239833831787
232,0.6926661658287049,0.5054000020027161,0.692709367275238,0.5074319839477539
233,0.6926422152519226,0.5062080025672913,0.6927128505706787,0.5067200064659119
234,0.6926466636657714,0.5059760212898254,0.69271293592453,0.5063279867172241
235,0.692694531917572,0.5046319961547852,0.6927536959648133,0.5051119923591614
236,0.6926762080192566,0.505407989025116,0.6927270741462708,0.5055639743804932
237,0.6926454491615296,0.5062000155448914,0.6926972479820251,0.5071319937705994
238,0.6926480875015258,0.506879985332489,0.6927185935974121,0.5064640045166016
239,0.6926516060829162,0.5048559904098511,0.6926960687637329,0.5066919922828674
240,0.6926370639801025,0.5058559775352478,0.6927213015556335,0.506056010723114
241,0.6926578249931336,0.5053520202636719,0.6927217693328858,0.5058079957962036
242,0.6926854605674744,0.5051440000534058,0.6927078838348388,0.5065600275993347
243,0.6927129487991333,0.5074639916419983,0.6927991375923157,0.5037999749183655
244,0.6926541681289673,0.506879985332489,0.6926934480667114,0.5072479844093323
245,0.6926807565689087,0.5044080018997192,0.6927226986885071,0.505623996257782
246,0.6926746644973755,0.5053920149803162,0.6927078652381897,0.5063599944114685
247,0.6926684918403625,0.5041279792785645,0.6927069339752198,0.5059959888458252
248,0.6926690993309021,0.5052719712257385,0.6927015686035156,0.5066279768943787
249,0.6926366534233094,0.5066480040550232,0.6927197165489197,0.5062599778175354
250,0.6926426734924317,0.5064319968223572,0.692711597442627,0.5066319704055786
251,0.6926552472114563,0.5062959790229797,0.6927142848968506,0.5060880184173584
252,0.6926469025611878,0.5063279867172241,0.6927002067565918,0.507095992565155
253,0.6926774067878723,0.5052400231361389,0.6927034630775452,0.5070599913597107
254,0.692653151512146,0.5057119727134705,0.6927123312950134,0.5061240196228027
255,0.6926717991828919,0.5056800246238708,0.6927196731567383,0.50655198097229
256,0.6926563653945923,0.505840003490448,0.6927133793830872,0.5069760084152222
257,0.6926691927909852,0.5040720105171204,0.6926925406455994,0.5066360235214233
258,0.6926702947616578,0.504863977432251,0.6926927833557129,0.5062800049781799
259,0.6926754064559937,0.5063599944114685,0.6926905570030213,0.5063319802284241
260,0.6926990694999695,0.5045279860496521,0.6927293453216553,0.5062320232391357
261,0.6926572632789612,0.506600022315979,0.6926888489723205,0.5072600245475769
262,0.6926394548416138,0.5067359805107117,0.6927069659233094,0.5055919885635376
263,0.692705542087555,0.5047839879989624,0.6927109451293946,0.5064319968223572
264,0.6926384611129761,0.5065919756889343,0.692717312335968,0.5060960054397583
265,0.6926486353874206,0.5060399770736694,0.6927232666015625,0.5061560273170471
266,0.6926646304130554,0.5058240294456482,0.6927186665534973,0.5060880184173584
267,0.6926855711936951,0.5041279792785645,0.6927389240264893,0.5051360130310059
268,0.6926756715774536,0.5041599869728088,0.6926924834251403,0.5070639848709106
269,0.6926892366409302,0.5048080086708069,0.6926839809417724,0.5071200132369995
270,0.692714994430542,0.5044639706611633,0.6927202105522156,0.5064640045166016
271,0.6926519246101379,0.5066480040550232,0.6926995339393616,0.5067399740219116
272,0.6927020664215088,0.504368007183075,0.6927123289108277,0.5065839886665344
273,0.6926700072288513,0.5059360265731812,0.6927377138137817,0.505299985408783
274,0.6926769976615905,0.5046079754829407,0.6926959214210511,0.507427990436554
275,0.6926452660560608,0.5054000020027161,0.6927005324363709,0.5070800185203552
276,0.692672146320343,0.505407989025116,0.6926956949234009,0.5064719915390015
277,0.6926521906852722,0.5062320232391357,0.6927098627090454,0.5071920156478882
278,0.6926849689483643,0.5062559843063354,0.6927318086624146,0.5056679844856262
279,0.6926437573432922,0.5067359805107117,0.6927219076156617,0.5065360069274902
280,0.6926263451576233,0.5057439804077148,0.6926946187019348,0.506488025188446
281,0.6926029205322266,0.5072240233421326,0.6927035222053528,0.5065280199050903
282,0.6927161545753479,0.5053920149803162,0.692713198184967,0.5063639879226685
283,0.6927051153182984,0.5044639706611633,0.6927288970947265,0.50655198097229
284,0.6926615018844604,0.5056399703025818,0.6926898455619812,0.5068680047988892
285,0.6926277441978455,0.5078480243682861,0.6927032842636108,0.5054839849472046
286,0.6926667323112488,0.5040000081062317,0.692696304321289,0.5065320134162903
287,0.6926540021896362,0.5061360001564026,0.692698480129242,0.507420003414154
288,0.6926473531723022,0.5051040053367615,0.6927211360931397,0.5059959888458252
289,0.6926809778213501,0.5057119727134705,0.6927078986167907,0.5070239901542664
290,0.6926746363639832,0.5070000290870667,0.6927072277069092,0.5059880018234253
291,0.6926383633613586,0.5071759819984436,0.6927006883621216,0.5063719749450684
292,0.6926845555305481,0.5052880048751831,0.69268794298172,0.5072720050811768
293,0.6926735353469848,0.5062639713287354,0.6926965270042419,0.5064160227775574
294,0.6926557564735413,0.5064799785614014,0.6927093462944031,0.5072519779205322
295,0.6926826829910279,0.5063040256500244,0.6927076873779296,0.506056010723114
296,0.6926415996551514,0.5069519877433777,0.6927104806900024,0.506991982460022
297,0.6926356935501099,0.5047360062599182,0.6927147951126099,0.505511999130249
298,0.6926496934890747,0.5057920217514038,0.6927280178070069,0.5059999823570251
299,0.6926509318351746,0.5059760212898254,0.6927131867408752,0.5059080123901367
300,0.69269713306427,0.5062159895896912,0.692704225063324,0.506492018699646
301,0.6926711854934693,0.5058159828186035,0.6927183952331543,0.5057960152626038
302,0.6926625480651856,0.5046560168266296,0.6927047324180603,0.5069040060043335
303,0.692655604839325,0.5060240030288696,0.692683500289917,0.5056480169296265
304,0.6926492328643798,0.505840003490448,0.6927099137306213,0.5057399868965149
305,0.6926721081733703,0.5063520073890686,0.6927135529518127,0.5062519907951355
306,0.6926716914176941,0.5051119923591614,0.6926924877166748,0.506060004234314
307,0.6926976609230041,0.5051519870758057,0.6926815867424011,0.5074399709701538
308,0.6926765489578247,0.5038880109786987,0.6927059955596924,0.5061479806900024
309,0.6926302876472473,0.5063440203666687,0.692713547706604,0.5074959993362427
310,0.6926519756317139,0.5065280199050903,0.6927100315093994,0.507315993309021
311,0.6926433186531067,0.5061600208282471,0.6927088503837585,0.5059639811515808
312,0.6926455144882202,0.5065360069274902,0.6927258334159851,0.5051959753036499
313,0.692648980140686,0.5070639848709106,0.6927178401947022,0.5061479806900024
314,0.6926565389633179,0.5057200193405151,0.6926835503578186,0.5073840022087097
315,0.6926632013320922,0.5066959857940674,0.6927014575004578,0.5067600011825562
316,0.6927004084587097,0.5053200125694275,0.6926990895271301,0.5063120126724243
317,0.6926567735671997,0.5064560174942017,0.6927009286880493,0.5064839720726013
318,0.692706072807312,0.5055840015411377,0.6926893873214721,0.5068719983100891
319,0.692653989315033,0.5058320164680481,0.6926882824897767,0.5069959759712219
320,0.6926637654304504,0.5058240294456482,0.6927134971618653,0.506164014339447
321,0.6926251153945923,0.5066080093383789,0.6927083830833435,0.5061399936676025
322,0.6926821851730347,0.5056560039520264,0.6926987714767456,0.5062159895896912
323,0.6926741814613342,0.5048320293426514,0.6927323927879333,0.5058680176734924
324,0.6926754002571106,0.5064079761505127,0.6927053160667419,0.5069040060043335
325,0.6926651391983032,0.504751980304718,0.6927195076942444,0.5051079988479614
326,0.6926405830383301,0.5058000087738037,0.6926794705390931,0.5063199996948242
327,0.6926500768661499,0.505079984664917,0.6926976199150086,0.5065919756889343
328,0.6926315484046937,0.5061439871788025,0.6927399916648864,0.5061360001564026
329,0.6926524047851562,0.5066720247268677,0.692725757598877,0.5054240226745605
330,0.6926229815483094,0.5071120262145996,0.6927191863059997,0.5054759979248047
331,0.6926498565673828,0.5066239833831787,0.6927045583724976,0.5060439705848694
332,0.6926203203201294,0.5064160227775574,0.6927113199234008,0.5060679912567139
333,0.6926644339561462,0.5042319893836975,0.6926944155693054,0.5071840286254883
334,0.692643045425415,0.5062559843063354,0.692723650932312,0.505515992641449
335,0.6926535143852234,0.506767988204956,0.6927105574607849,0.506380021572113
336,0.6926851558685303,0.5045520067214966,0.6926953864097595,0.5069000124931335
337,0.6926883754730224,0.5064719915390015,0.6926823544502259,0.5077760219573975
338,0.692649965763092,0.506816029548645,0.6926962518692017,0.5067279934883118
339,0.6926519846916199,0.5059999823570251,0.6926824073791504,0.5074920058250427
340,0.692672101020813,0.5061039924621582,0.692732515335083,0.5060799717903137
341,0.692632695198059,0.5066239833831787,0.6927179579734802,0.5062199831008911
342,0.6926668291091919,0.5065919756889343,0.6927201852798462,0.5060880184173584
343,0.6926412739753723,0.505623996257782,0.6927019124031066,0.5062239766120911
344,0.6926850066184997,0.5053840279579163,0.6927110681533813,0.5062440037727356
345,0.6926659283638,0.5057359933853149,0.6927187805175781,0.5054360032081604
346,0.6926758089065552,0.5050079822540283,0.6927192349433899,0.5068640112876892
347,0.692633430480957,0.5057680010795593,0.6927044019699097,0.5063760280609131
348,0.6926399612426758,0.5059919953346252,0.6927057108879089,0.5063999891281128
349,0.6926218166351318,0.5074959993362427,0.6927141284942627,0.5062599778175354
350,0.6926988706588745,0.5038560032844543,0.6926946816444397,0.506380021572113
351,0.6926406121253967,0.5066239833831787,0.6927103357315063,0.5069320201873779
352,0.6926994824409485,0.5041999816894531,0.6927183475494385,0.5063560009002686
353,0.6926460194587708,0.5061119794845581,0.6927008419036865,0.5063279867172241
354,0.6926497960090637,0.5061839818954468,0.6927048683166503,0.5065439939498901
355,0.6926794662475586,0.505728006362915,0.6927216081619263,0.5068680047988892
356,0.6926578516960145,0.5067440271377563,0.6927116246223449,0.5057920217514038
357,0.6926404738426208,0.5066959857940674,0.6927112741470337,0.5064079761505127
358,0.6926472754478454,0.5062959790229797,0.6927037577629089,0.5064799785614014
359,0.6926675086021423,0.5050079822540283,0.6927400093078613,0.5054360032081604
360,0.692648754119873,0.506335973739624,0.692694529056549,0.5065680146217346
361,0.6926571283340454,0.5067039728164673,0.6927230234146118,0.506447970867157
362,0.6926499304771423,0.5068879723548889,0.6927168774604797,0.50518798828125
363,0.6926698422431946,0.5047439932823181,0.6926934967041015,0.5060799717903137
364,0.692639997959137,0.5049600005149841,0.6927384190559387,0.5055279731750488
365,0.6926246981620788,0.5067999958992004,0.6927024230957032,0.5062440037727356
366,0.6926416411399842,0.5059040188789368,0.6926928668022155,0.5071319937705994
367,0.6926555180549622,0.5057920217514038,0.6927180709838867,0.5056359767913818
368,0.6927325134277343,0.5044080018997192,0.6927226386070251,0.5061879754066467
369,0.6926978192329407,0.5052319765090942,0.692693932056427,0.5064600110054016
370,0.6926680932044983,0.5063999891281128,0.692685272693634,0.5066760182380676
371,0.6926852250099182,0.5050479769706726,0.6926956171989441,0.5074520111083984
372,0.6926494493484497,0.5076239705085754,0.6927202610969544,0.5064560174942017
373,0.6926388111114502,0.5066080093383789,0.6927147188186645,0.5065360069274902
374,0.6926950063705445,0.5047360062599182,0.6927165007591247,0.5064160227775574
375,0.6926426453590393,0.5054399967193604,0.6927234287261963,0.5058640241622925
376,0.6926380653381348,0.5060960054397583,0.6927303099632263,0.5061879754066467
377,0.6926676731109619,0.5059279799461365,0.6927181329727173,0.5059279799461365
378,0.6926619648933411,0.5070080161094666,0.6927193684577941,0.5066519975662231
379,0.6926699032783509,0.5050320029258728,0.6926776552200318,0.5077360272407532
380,0.6926848850250245,0.5054320096969604,0.6927008409500122,0.5061479806900024
381,0.6926880216598511,0.5054320096969604,0.6927006521224975,0.5065159797668457
382,0.692664430141449,0.5055360198020935,0.6926969075202942,0.5067239999771118
383,0.6926926646232605,0.5046799778938293,0.6927083249092102,0.5062639713287354
384,0.6926506366729737,0.506879985332489,0.6926989398002624,0.5066959857940674
385,0.6925986285209655,0.507319986820221,0.6927246189117432,0.5063760280609131
386,0.6926921162605285,0.5056560039520264,0.6926959209442138,0.5068399906158447
387,0.692651213169098,0.504800021648407,0.6927253680229187,0.5061079859733582
388,0.6926313557624817,0.5058000087738037,0.6927128667831421,0.5071319937705994
389,0.6926892910003662,0.505016028881073,0.6927151088714599,0.5065919756889343
390,0.6926503367424012,0.5053840279579163,0.6927057709693909,0.5069640278816223
391,0.6926901082992554,0.5046079754829407,0.692699125289917,0.5064520239830017
392,0.6926234302520752,0.5070880055427551,0.69269668674469,0.5060880184173584
393,0.6926806588172912,0.5064079761505127,0.6927041978836059,0.5062000155448914
394,0.692643500328064,0.5054159760475159,0.6927251224517822,0.5062479972839355
395,0.6926667675971985,0.5051680207252502,0.6927247667312622,0.5067600011825562
396,0.6926468434333801,0.5062239766120911,0.6927127976417542,0.5069199800491333
397,0.6926779689788818,0.5050960183143616,0.6926917181015014,0.5066720247268677
398,0.6926292901039124,0.5067999958992004,0.6927003741264344,0.5066480040550232
399,0.6927039504051209,0.5055279731750488,0.6927282824516297,0.5056840181350708
400,0.6926548256874084,0.5059199929237366,0.6927261667251587,0.5056040287017822
401,0.6926564221382141,0.5064319968223572,0.6927244796752929,0.5058839917182922
402,0.6926452136039734,0.5065760016441345,0.6927116045951843,0.5067319869995117
403,0.6926333832740784,0.5072720050811768,0.6927115416526795,0.5064679980278015
404,0.6926324543952942,0.5064399838447571,0.6926991634368896,0.5062360167503357
405,0.6926434588432312,0.5074719786643982,0.6926926908493042,0.5059919953346252
406,0.692710241317749,0.504688024520874,0.6926949105262756,0.5063719749450684
407,0.6926531682014465,0.5059999823570251,0.6927275023460389,0.5057839751243591
408,0.6927100472450256,0.5034080147743225,0.6926897864341736,0.5069159865379333
409,0.6927051005363465,0.5032960176467896,0.6926981101036072,0.5073080062866211
410,0.6926538276672364,0.5082799792289734,0.6926931853294372,0.5067239999771118
411,0.6926625747680664,0.5061039924621582,0.6926978073120117,0.5074160099029541
412,0.6926654481887817,0.5061839818954468,0.6927026710510253,0.506987988948822
413,0.6926528806686402,0.5047280192375183,0.6926857137680054,0.5062479972839355
414,0.6926746563911438,0.5054640173912048,0.6927223143577576,0.5062919855117798
415,0.6926813530921936,0.5055999755859375,0.6927097635269165,0.5067880153656006
416,0.6926974244117737,0.5044479966163635,0.6927171106338501,0.5058159828186035
417,0.6926946201324463,0.5056639909744263,0.6927159004211426,0.507315993309021
418,0.6926573581695556,0.5060960054397583,0.6926882286071777,0.5076799988746643
419,0.6926531071662902,0.5063920021057129,0.6927012262344361,0.5071600079536438
420,0.6926667141914368,0.5058479905128479,0.6927149953842163,0.5067239999771118
421,0.6926722998619079,0.5062559843063354,0.6927002835273742,0.5068560242652893
422,0.6926812982559204,0.5052559971809387,0.6927068734169006,0.50627201795578
423,0.6926292114257813,0.5055999755859375,0.6927015633583069,0.5069479942321777
424,0.6926643152236939,0.5056560039520264,0.6926833720207214,0.5064839720726013
425,0.6926720871925354,0.5059760212898254,0.6927189793586731,0.5067359805107117
426,0.6926244039535523,0.5063760280609131,0.692710464477539,0.5059000253677368
427,0.6926590614318847,0.5063999891281128,0.6927059936523438,0.5057240128517151
428,0.6926927003860474,0.5052000284194946,0.692752667427063,0.5051400065422058
429,0.6926498427391052,0.5056959986686707,0.6926912989616394,0.5070880055427551
430,0.6926244540214539,0.5055760145187378,0.6927141461372376,0.5064280033111572
431,0.6926648049354553,0.5050320029258728,0.6926962132453919,0.506600022315979
432,0.6926609830856323,0.506335973739624,0.6926988563537597,0.506496012210846
433,0.692679319858551,0.5032960176467896,0.6926951227188111,0.5069400072097778
434,0.6926711535453797,0.5041919946670532,0.6927129559516907,0.5065039992332458
435,0.6926710243225098,0.5068879723548889,0.6927267532348633,0.5063920021057129
436,0.6926659603118897,0.5061039924621582,0.6927093663215638,0.5061759948730469
437,0.6926793260574341,0.5041519999504089,0.6926976881027221,0.5076000094413757
438,0.6926311740875244,0.5061519742012024,0.6927389092445374,0.5052160024642944
439,0.6926629233360291,0.5053439736366272,0.6926921935081481,0.5075920224189758
440,0.6926752972602844,0.5069119930267334,0.6927193279266357,0.5062320232391357
441,0.6926804795265198,0.505128026008606,0.69268199634552,0.5067600011825562
442,0.6926650915145874,0.5058879852294922,0.69271022939682,0.505731999874115
443,0.6926763849258423,0.5048800110816956,0.6927081127166748,0.5068879723548889
444,0.692684453010559,0.5040240287780762,0.6927064681053161,0.5065680146217346
445,0.6926430773735046,0.5065039992332458,0.6927198176383972,0.5062400102615356
446,0.6926817483901978,0.5056399703025818,0.692726005077362,0.5064600110054016
447,0.6926287536621094,0.5059199929237366,0.6926861481666565,0.5073519945144653
448,0.6926439180374145,0.5057039856910706,0.6927192726135254,0.5065640211105347
449,0.6926647987365723,0.5050640106201172,0.6927023954391479,0.5064039826393127
450,0.6926625137329101,0.5072399973869324,0.6927167148590088,0.5056359767913818
451,0.6926697149276734,0.5055279731750488,0.6927203822135926,0.5065600275993347
452,0.692665397644043,0.5061200261116028,0.6927178783416748,0.5052279829978943
453,0.6926959314346314,0.5040320158004761,0.6926999044418335,0.5066159963607788
454,0.692596625328064,0.5060319900512695,0.6927027988433838,0.5061600208282471
455,0.6926925220489502,0.5052000284194946,0.692719304561615,0.506820023059845
456,0.692608407497406,0.5072320103645325,0.692721435546875,0.506164014339447
457,0.6926586332321167,0.506712019443512,0.692712664604187,0.5053920149803162
458,0.6926510457992554,0.5065280199050903,0.6927110214233398,0.5058720111846924
459,0.6926849150657653,0.503928005695343,0.692696385383606,0.5063639879226685
460,0.6926931772232056,0.5050719976425171,0.692686381816864,0.5069159865379333
461,0.6926385312080383,0.5058079957962036,0.6927022862434388,0.5072159767150879
462,0.6926768040657043,0.5041599869728088,0.69272953748703,0.506447970867157
463,0.6926587600708007,0.5056319832801819,0.6927065558433533,0.5071520209312439
464,0.6926610374450684,0.506775975227356,0.69273619556427,0.5064359903335571
465,0.6926728858947754,0.5072879791259766,0.6927112617492676,0.5066080093383789
466,0.6926454696655273,0.5072320103645325,0.6927237291336059,0.5063760280609131
467,0.6926289792060852,0.5060719847679138,0.6927193727493286,0.506708025932312
468,0.6926597547531128,0.5057680010795593,0.6926878023147583,0.5068240165710449
469,0.6926138677597046,0.5061039924621582,0.6927099270820618,0.5061720013618469
470,0.6926549973487854,0.5059679746627808,0.692711865901947,0.5060439705848694
471,0.6926460423469544,0.5053279995918274,0.692722801208496,0.5052040219306946
472,0.6926644339561462,0.5051599740982056,0.6927090110778809,0.5059919953346252
473,0.6926976490020752,0.5031200051307678,0.6927222380638123,0.5061560273170471
474,0.6926820077896119,0.5057920217514038,0.6926935148239136,0.5071200132369995
475,0.6926575026512146,0.5060240030288696,0.6927041454315186,0.5063120126724243
476,0.6926716909408569,0.5043839812278748,0.6926861534118652,0.5065680146217346
477,0.6926338872909545,0.5056080222129822,0.692707510471344,0.506712019443512
478,0.692663327217102,0.5059840083122253,0.6927033181190491,0.5072919726371765
479,0.6926463823318482,0.5063760280609131,0.6927100815773011,0.5065479874610901
480,0.6926643223762512,0.5040720105171204,0.6927093048095703,0.5067279934883118
481,0.6926936717033386,0.5039920210838318,0.6927019348144531,0.5062639713287354
482,0.6926663312911987,0.5063440203666687,0.6927230906486511,0.5060359835624695
483,0.6926725239753723,0.5048400163650513,0.6926785202026368,0.5059559941291809
484,0.6926768922805786,0.5037360191345215,0.6927050185203553,0.5068240165710449
485,0.6926556205749512,0.5061600208282471,0.6927158727645873,0.5067639946937561
486,0.6926434988975525,0.5051040053367615,0.6926956334114075,0.5068439841270447
487,0.6926323957443238,0.5063679814338684,0.6927043371200562,0.5066480040550232
488,0.692655644416809,0.5060399770736694,0.6927205967903137,0.5065000057220459
489,0.6926683959960938,0.5062159895896912,0.6926938633918762,0.5060719847679138
490,0.6926563296318055,0.5065119862556458,0.6927170467376709,0.5061439871788025
491,0.6926533126831055,0.5068240165710449,0.692698625087738,0.506767988204956
492,0.6926802153587341,0.5061839818954468,0.6927131409645081,0.5063599944114685
493,0.6926106476783752,0.5082079768180847,0.6926845002174378,0.5062879920005798
494,0.6926252980232239,0.5053520202636719,0.6926911487579346,0.5067960023880005
495,0.6926497859954834,0.5063279867172241,0.6927239727973938,0.5053600072860718
496,0.6926721215248108,0.5048959851264954,0.6927167019844055,0.5062919855117798
497,0.692649007320404,0.5073680281639099,0.6927228260040283,0.5057799816131592
498,0.6926838645935058,0.5050879716873169,0.6927085766792297,0.5058280229568481
499,0.6926160116195679,0.5072320103645325,0.6927136559486389,0.5057520270347595
