,testloss,testacc,trainloss,trainacc
0,0.6937377314567565,0.5035549998283386,0.6938726234436036,0.5028975009918213
1,0.6931347861289978,0.5028849840164185,0.6931339340209961,0.5051087737083435
2,0.6929239711761475,0.5049650073051453,0.6929061617851258,0.5063825249671936
3,0.6928183450698853,0.5057700276374817,0.6927775888442993,0.5074300169944763
4,0.6927302150726319,0.5068349838256836,0.6926708965301513,0.5083774924278259
5,0.6926603546142578,0.5067999958992004,0.6925860500335693,0.5091375112533569
6,0.6925956645011901,0.5074599981307983,0.6924906625747681,0.5098124742507935
7,0.6925458602905273,0.5067949891090393,0.6924227442741394,0.5101500153541565
8,0.6924906206130982,0.506879985332489,0.6923378410339356,0.5115650296211243
9,0.6924582281112671,0.5077149868011475,0.6922669086456299,0.512102484703064
10,0.6924103856086731,0.5072600245475769,0.6921929001808167,0.512470006942749
11,0.6923707075119019,0.5076975226402283,0.6921195468902588,0.512624979019165
12,0.6923153767585755,0.5078150033950806,0.6920552525520325,0.5128650069236755
13,0.6922972025871277,0.5080699920654297,0.6919787635803223,0.5132399797439575
14,0.6922577977180481,0.508080005645752,0.6918977422714233,0.5137050151824951
15,0.6922293019294739,0.5075500011444092,0.6918167228698731,0.5139362215995789
16,0.6921700587272644,0.5083799958229065,0.6917141695022583,0.5141724944114685
17,0.692140221118927,0.5081350207328796,0.6916297497749329,0.5145025253295898
18,0.6920912189483642,0.5086650252342224,0.6915250835418701,0.5149174928665161
19,0.6920421662330627,0.5088800191879272,0.6914284448623658,0.5157600045204163
20,0.6919823451042175,0.5091500282287598,0.6913259534835815,0.5159025192260742
21,0.6919250898361206,0.5097399950027466,0.6912298994064331,0.5163237452507019
22,0.6918810176849365,0.509784996509552,0.6911396403312683,0.5170724987983704
23,0.6918338766098022,0.509975016117096,0.6910290756225586,0.5177000164985657
24,0.6917863383293151,0.5099325180053711,0.6909336447715759,0.5179212689399719
25,0.6917400918006897,0.5099800229072571,0.6908560738563537,0.5183075070381165
26,0.6917003531455994,0.5099449753761292,0.6907597632408142,0.5183362364768982
27,0.6916501297950745,0.5101850032806396,0.6906738934516907,0.518827497959137
28,0.6915994482040405,0.5110999941825867,0.690578345298767,0.5192400217056274
29,0.6915655970573426,0.5107449889183044,0.6904805779457093,0.5196537375450134
30,0.6915384650230407,0.5108100175857544,0.6903900356292725,0.5197175145149231
31,0.6914852666854858,0.5106499791145325,0.6903066196441651,0.5201637744903564
32,0.6914525747299194,0.5116450190544128,0.6902207074165344,0.5207474827766418
33,0.6914126510620118,0.5119600296020508,0.6901357564926147,0.520761251449585
34,0.6913702011108398,0.5121099948883057,0.6900492243766785,0.5212025046348572
35,0.691334424495697,0.5116699934005737,0.6899730229377746,0.521966278553009
36,0.6913131332397461,0.5118150115013123,0.689894775390625,0.5219625234603882
37,0.691265673160553,0.5116649866104126,0.6898067574501038,0.5225200057029724
38,0.6912382745742798,0.5119900107383728,0.6897150950431824,0.522272527217865
39,0.6912060632705689,0.511614978313446,0.6896486535072327,0.5224499702453613
40,0.691184775352478,0.511834979057312,0.6895703964233398,0.5229125022888184
41,0.6911606106758118,0.5115050077438354,0.6894919991493225,0.5235900282859802
42,0.6911365103721618,0.5118550062179565,0.6894076595306396,0.5239424705505371
43,0.6910996737480164,0.5122575163841248,0.689324695110321,0.5241249799728394
44,0.6910754632949829,0.5118399858474731,0.6892501330375671,0.5243350267410278
45,0.6910365228652954,0.5120499730110168,0.6891920223236084,0.5246300101280212
46,0.6910294075012207,0.5123950242996216,0.6890950150489807,0.525026261806488
47,0.691014241695404,0.5125449895858765,0.689031174659729,0.5252724885940552
48,0.6909810700416565,0.5127350091934204,0.6889574360847474,0.5255962610244751
49,0.6909645037651062,0.5125600099563599,0.6888832106590271,0.5259850025177002
50,0.6909523754119873,0.5128350257873535,0.6888081154823303,0.5260512232780457
51,0.6909026908874512,0.5131450295448303,0.688742871761322,0.526601254940033
52,0.6909041557312011,0.5132449865341187,0.6886680397987366,0.5268787741661072
53,0.6908852577209472,0.5130724906921387,0.6885942606925964,0.5269637703895569
54,0.6908452820777893,0.5130050182342529,0.6885360422134399,0.5273687243461609
55,0.6908322534561158,0.5131649971008301,0.6884589772224426,0.5277100205421448
56,0.6908085570335388,0.5134050250053406,0.6884028415679931,0.5277125239372253
57,0.6907981076240539,0.5133450031280518,0.6883242330551147,0.5281000137329102
58,0.690799898147583,0.5131800174713135,0.6882713584899902,0.5287349820137024
59,0.6907883749008179,0.5136299729347229,0.6881984524726867,0.5284937620162964
60,0.6907844171524048,0.5132399797439575,0.6881474781036377,0.5291000008583069
61,0.6907526636123658,0.5134599804878235,0.688075565814972,0.528980016708374
62,0.6907332458496094,0.5136150121688843,0.6880127334594727,0.5293974876403809
63,0.690723874092102,0.5131924748420715,0.6879668197631836,0.5295087695121765
64,0.6907034077644348,0.5134599804878235,0.6878839111328126,0.5303300023078918
65,0.6906923170089722,0.5135300159454346,0.6878290696144104,0.5301849842071533
66,0.690709406375885,0.5134450197219849,0.6877621235847473,0.5304775238037109
67,0.6906940293312073,0.5137050151824951,0.6877012619972229,0.5304625034332275
68,0.6907003297805786,0.5133249759674072,0.6876363096237182,0.5306975245475769
69,0.6906781535148621,0.5135049819946289,0.6875871195793152,0.531327486038208
70,0.6906980409622192,0.5131250023841858,0.6875141077041625,0.5312175154685974
71,0.6906993598937988,0.5128800272941589,0.6874582285881042,0.5318024754524231
72,0.6906701941490173,0.5132750272750854,0.6874191670417785,0.5318924784660339
73,0.6906794538497925,0.5131499767303467,0.6873547716140747,0.5318149924278259
74,0.690664044380188,0.5135725140571594,0.687303325176239,0.532346248626709
75,0.6906669397354126,0.5136849880218506,0.6872358198165893,0.532682478427887
76,0.6906933283805847,0.513182520866394,0.6871869950294495,0.5325624942779541
77,0.6906959447860718,0.5135300159454346,0.6871125774383545,0.5332249999046326
78,0.6906921396255493,0.5137324929237366,0.6870734658241272,0.533252477645874
79,0.6906895141601562,0.5135999917984009,0.6870043683052063,0.5329174995422363
80,0.6906524739265442,0.5135149955749512,0.6869499864578247,0.5335624814033508
81,0.6906822123527527,0.5132250189781189,0.6868926477432251,0.5336049795150757
82,0.690694552898407,0.5134099721908569,0.6868332695960998,0.5338025093078613
83,0.6906842269897461,0.5128700137138367,0.6867882237434387,0.5338699817657471
84,0.690698923587799,0.513729989528656,0.6867208862304688,0.5339875221252441
85,0.6906868605613709,0.5133699774742126,0.6866772637367249,0.5346599817276001
86,0.6906846027374267,0.5134549736976624,0.6866035499572753,0.5345437526702881
87,0.6906997818946838,0.513979971408844,0.6865588703155517,0.535022497177124
88,0.6907116026878357,0.5135899782180786,0.6864955215454102,0.5352925062179565
89,0.6907029390335083,0.513480007648468,0.6864358296394348,0.5352324843406677
90,0.6907116222381592,0.5138750076293945,0.6863831305503845,0.5354574918746948
91,0.6907190613746643,0.5135250091552734,0.686308865070343,0.5358399748802185
92,0.6907134985923767,0.5140374898910522,0.6862655282020569,0.5362750291824341
93,0.6907210597991943,0.5139350295066833,0.6862232255935669,0.5364350080490112
94,0.6907693481445313,0.5139549970626831,0.6861470127105713,0.5367100238800049
95,0.6907273287773132,0.5141199827194214,0.6861023077964783,0.5367749929428101
96,0.6907477250099182,0.5138199925422668,0.686047725200653,0.5368362665176392
97,0.6907819542884827,0.514270007610321,0.6859471664428711,0.53729248046875
98,0.6908046932220459,0.5136100053787231,0.6859149112701416,0.5373575091362
99,0.6908015079498291,0.5139449834823608,0.6858440833091736,0.5379549860954285
100,0.6907943925857544,0.5137249827384949,0.6857962255477905,0.5381824970245361
101,0.69081245803833,0.514460027217865,0.6857430605888367,0.5380449891090393
102,0.6908400821685791,0.5137649774551392,0.685681405544281,0.5386762619018555
103,0.6907905526161194,0.5141350030899048,0.6856212544441224,0.5387300252914429
104,0.690830487728119,0.5146549940109253,0.6855533270835876,0.5389249920845032
105,0.6908582096099853,0.5140374898910522,0.6855208187103271,0.5390024781227112
106,0.6908691229820252,0.514240026473999,0.6854209032058716,0.5396674871444702
107,0.6908893632888794,0.5140849947929382,0.6853755569458008,0.5395525097846985
108,0.6909536204338074,0.5142750144004822,0.6853019661903381,0.5397174954414368
109,0.6909118847846984,0.5135999917984009,0.6852792854309082,0.5397425293922424
110,0.6908917403221131,0.5142999887466431,0.6852084393501282,0.5401549935340881
111,0.6909634590148925,0.5142300128936768,0.6851098518371582,0.5403375029563904
112,0.6909606795310974,0.5138000249862671,0.6850765790939332,0.5404924750328064
113,0.6909301958084106,0.5142825245857239,0.6849938359260559,0.5408024787902832
114,0.6909326310157776,0.5136474967002869,0.6849516906738281,0.5409462451934814
115,0.6909659323692322,0.5135449767112732,0.6848677897453308,0.5414249897003174
116,0.6910207347869873,0.51357501745224,0.6848120455741882,0.5415850281715393
117,0.6910290808677674,0.5140299797058105,0.6847319602966309,0.5416625142097473
118,0.690986557006836,0.5138499736785889,0.6846855592727661,0.5421574711799622
119,0.6910121712684631,0.5139449834823608,0.6846204800605774,0.5421774983406067
120,0.6910562491416932,0.5139300227165222,0.6845260829925537,0.5429850220680237
121,0.6910242300033569,0.5142850279808044,0.6844592289924621,0.5428375005722046
122,0.691032557964325,0.5140600204467773,0.6844189796447754,0.5435174703598022
123,0.6910925488471985,0.5145599842071533,0.6843289203643799,0.5431625247001648
124,0.6910992765426636,0.51419997215271,0.6842614436149597,0.5435624718666077
125,0.6911033291816712,0.5141900181770325,0.6841998720169067,0.5435025095939636
126,0.6911234560012818,0.5141950249671936,0.6841304740905761,0.5436325073242188
127,0.6912464561462403,0.5139449834823608,0.6840552892684937,0.543304979801178
128,0.6912017078399658,0.513824999332428,0.6839996666908265,0.5439762473106384
129,0.6912346820831299,0.5138499736785889,0.6839267587661744,0.5443599820137024
130,0.6912844228744507,0.5141699910163879,0.683860032081604,0.5440700054168701
131,0.6912495522499085,0.5145000219345093,0.6837948169708252,0.5447074770927429
132,0.6912490925788879,0.513872504234314,0.6837227349281311,0.5455049872398376
133,0.6913275957107544,0.5139099955558777,0.6836234283447266,0.5449475049972534
134,0.6912716269493103,0.5135499835014343,0.683580482006073,0.5453025102615356
135,0.6913220314979553,0.5131700038909912,0.6835024561882019,0.5454549789428711
136,0.6913176722526551,0.5132575035095215,0.6834709463119507,0.5459700226783752
137,0.6914349532127381,0.5132349729537964,0.6833510427474976,0.5461875200271606
138,0.6914226112365722,0.5134599804878235,0.6832950716018676,0.5459187626838684
139,0.6914473004341125,0.5135700106620789,0.6832260565757752,0.5464475154876709
140,0.6915481581687927,0.5134199857711792,0.6831132774353027,0.5466662645339966
141,0.6915017046928406,0.5135899782180786,0.683043520450592,0.5474887490272522
142,0.691477563381195,0.5135949850082397,0.6829802317619323,0.5472099781036377
143,0.6915395731925964,0.5139099955558777,0.6828721103668213,0.5475500226020813
144,0.6916183667182922,0.5139350295066833,0.6828358149528504,0.5477200150489807
145,0.6916587042808533,0.5134000182151794,0.68273752784729,0.5483800172805786
146,0.6915832400321961,0.5130875110626221,0.6826692008972168,0.5482199788093567
147,0.6916548795700074,0.5137174725532532,0.682589876651764,0.5487874746322632
148,0.6917271585464477,0.5141699910163879,0.6825003609657287,0.5488499999046326
149,0.6917714982032775,0.5133749842643738,0.6824119582176208,0.5490725040435791
150,0.6918121876716614,0.5137749910354614,0.6823289704322815,0.5492274761199951
151,0.6917999105453492,0.5136374831199646,0.6823107047080994,0.5493674874305725
152,0.6918735499382019,0.5140950083732605,0.6821612129211426,0.5496399998664856
153,0.6918885269165039,0.5140849947929382,0.6821068782806397,0.549801230430603
154,0.6918826627731324,0.5141900181770325,0.6820426592826844,0.5498650074005127
155,0.6919672842025757,0.5138199925422668,0.6819584426879883,0.5504224896430969
156,0.691946017742157,0.5137249827384949,0.6818687162399292,0.5505325198173523
157,0.6919072294235229,0.513824999332428,0.6818124361038208,0.5511037707328796
158,0.6921721076965333,0.5138649940490723,0.681721453666687,0.5506550073623657
159,0.692119179725647,0.5135999917984009,0.6815920672416687,0.5511624813079834
160,0.6921133427619934,0.5140900015830994,0.6815431199073791,0.5516725182533264
161,0.6920460777282715,0.5142999887466431,0.6814398522377014,0.5513975024223328
162,0.6921083736419678,0.5144150257110596,0.6813978986740112,0.5515699982643127
163,0.6921088471412659,0.5141850113868713,0.6812756314277649,0.552079975605011
164,0.6922008199691773,0.5144050121307373,0.681213077545166,0.5522724986076355
165,0.6922603178024292,0.5144500136375427,0.6811226935386657,0.5521600246429443
166,0.6922062978744506,0.5140650272369385,0.6810378732681275,0.5524724721908569
167,0.6922398104667663,0.5144000053405762,0.6809843549728394,0.552732527256012
168,0.6922398624420166,0.5144249796867371,0.6808885078430176,0.5530449748039246
169,0.6923551459312439,0.5141699910163879,0.6808005681037903,0.552857518196106
170,0.692366292476654,0.5144699811935425,0.6806657481193542,0.5532150268554688
171,0.6923243141174317,0.5144249796867371,0.6806602849960327,0.5533875226974487
172,0.6924198360443116,0.5147349834442139,0.6805426487922669,0.553725004196167
173,0.6924085478782653,0.5143250226974487,0.6804916458129883,0.5536749958992004
174,0.6924531588554382,0.5149000287055969,0.6803892779350281,0.5544649958610535
175,0.6925665626525879,0.5143550038337708,0.6802574706077575,0.554131269454956
176,0.6925642476081848,0.5144500136375427,0.6801932682991028,0.5542349815368652
177,0.6926089587211609,0.5144500136375427,0.6801261348724366,0.5546900033950806
178,0.692630078792572,0.5146350264549255,0.6799933166503906,0.5546724796295166
179,0.6928711352348328,0.5143049955368042,0.6799932684898377,0.5544825196266174
180,0.6926469345092774,0.5147150158882141,0.6798481240272521,0.5551475286483765
181,0.6927686123847961,0.5147600173950195,0.6796779627799988,0.555400013923645
182,0.6927781300544739,0.5149499773979187,0.6796338109970093,0.555641233921051
183,0.6928906035423279,0.5145750045776367,0.6794820356369019,0.5556899905204773
184,0.6927271466255188,0.5157949924468994,0.6794012961387634,0.5563750267028809
185,0.6929536933898925,0.5148749947547913,0.6793175354003906,0.5564849972724915
186,0.6929298739433288,0.5149624943733215,0.679287751674652,0.5565574765205383
187,0.6929279613494873,0.5151799917221069,0.6790766720771789,0.5565274953842163
188,0.6928757510185242,0.5154299736022949,0.6791326956748962,0.5569012761116028
189,0.6929903664588928,0.5145350098609924,0.6789918785095215,0.5574774742126465
190,0.693317985534668,0.514490008354187,0.6788873357772827,0.5566924810409546
191,0.6929530191421509,0.5153149962425232,0.6787738165855408,0.5577287673950195
192,0.6931089687347413,0.5145900249481201,0.6786904158592224,0.5574550032615662
193,0.6931098699569702,0.515375018119812,0.6785832915306091,0.557717502117157
194,0.6932796368598938,0.5144500136375427,0.6784658041000367,0.5579574704170227
195,0.6931015176773071,0.5148125290870667,0.6783882565498353,0.5584524869918823
196,0.6933433141708374,0.5148500204086304,0.6782379035949707,0.5586950182914734
197,0.6934945783615112,0.5146700143814087,0.6782077531814575,0.5580675005912781
198,0.6931881060600281,0.5149499773979187,0.6780794982910157,0.5589249730110168
199,0.693164677619934,0.5152549743652344,0.6780762915611267,0.5594274997711182
200,0.6931914753913879,0.5152999758720398,0.6779653840065002,0.5593850016593933
201,0.6933295526504517,0.5150799751281738,0.6778099675178528,0.5598875284194946
202,0.6935851049423217,0.5151299834251404,0.6776392068862915,0.5594974756240845
203,0.6936660819053649,0.5145949721336365,0.6776257653236389,0.5595899820327759
204,0.6936258397102356,0.5152400135993958,0.6775280227661132,0.5598800182342529
205,0.6935140604972839,0.5149149894714355,0.6774940295219422,0.5603125095367432
206,0.6936636390686035,0.5139650106430054,0.6773261461257934,0.5603125095367432
207,0.6934953923225403,0.5150150060653687,0.6773468089103699,0.5608450174331665
208,0.6935538530349732,0.514835000038147,0.6771967549324036,0.5606300234794617
209,0.6936191158294678,0.5147899985313416,0.6770846004486084,0.5607137680053711
210,0.6937276258468628,0.5148699879646301,0.6769928159713745,0.5605224967002869
211,0.6936935110092163,0.5150899887084961,0.676935950756073,0.5610125064849854
212,0.6936168651580811,0.5146974921226501,0.676889238357544,0.5616524815559387
213,0.6937017545700074,0.5147650241851807,0.6767443609237671,0.5612475275993347
214,0.6942763381004333,0.5145949721336365,0.6766102967262269,0.5620149970054626
215,0.6937730145454407,0.5152599811553955,0.6765654401779175,0.5622525215148926
216,0.693801857471466,0.5151950120925903,0.6765596404075622,0.5623674988746643
217,0.6940068378448486,0.5147225260734558,0.6763786067962646,0.5625500082969666
218,0.6940058426856994,0.5144500136375427,0.676359902381897,0.5628100037574768
219,0.6940475115776062,0.5145350098609924,0.6762484827041626,0.5630124807357788
220,0.6938936319351197,0.514769971370697,0.6763511128425598,0.5626800060272217
221,0.6943843340873719,0.5148000121116638,0.6760649857521057,0.5632374882698059
222,0.694373779296875,0.5142949819564819,0.6759353532791138,0.5637624859809875
223,0.6944877548217774,0.5156800150871277,0.6759194512367248,0.5633025169372559
224,0.6946944994926453,0.5147849917411804,0.6758312158584595,0.5640712380409241
225,0.6942818751335144,0.5149949789047241,0.6757230052947998,0.5643600225448608
226,0.6945522093772888,0.5147799849510193,0.6756978902816773,0.5645825266838074
227,0.6943245763778687,0.514460027217865,0.675697473526001,0.564973771572113
228,0.694843774318695,0.5138649940490723,0.6755254564285278,0.5643912553787231
229,0.6941363873481751,0.5152750015258789,0.6757609214782715,0.5649124979972839
230,0.6945905275344849,0.5144550204277039,0.6754429926872253,0.5648475289344788
231,0.6944128322601318,0.5151200294494629,0.6754895639419556,0.5657200217247009
232,0.6945467553138733,0.5155550241470337,0.6752910799980164,0.5656099915504456
233,0.6945390024185181,0.514864981174469,0.675184820652008,0.5660974979400635
234,0.6947721409797668,0.5150499939918518,0.6752068948745727,0.565586268901825
235,0.6949639549255371,0.5152199864387512,0.675021333694458,0.5662974715232849
236,0.6951943635940552,0.515250027179718,0.6749739265441894,0.5659487247467041
237,0.6947132415771484,0.5151950120925903,0.6750065612792969,0.5663949847221375
238,0.6951063747406006,0.5138924717903137,0.6748254632949829,0.5664125084877014
239,0.6954038152694703,0.5145900249481201,0.674875364780426,0.5662649869918823
240,0.6949325165748597,0.5153099894523621,0.6747820391654968,0.5663949847221375
241,0.6951051964759827,0.5144674777984619,0.6745894527435303,0.5671675205230713
242,0.6948681154251098,0.5151749849319458,0.6746290054321289,0.5678024888038635
243,0.6948974990844726,0.5148599743843079,0.6745498156547547,0.5672475099563599
244,0.6950094404220581,0.5151950120925903,0.6744729480743408,0.5676025152206421
245,0.6953534784317017,0.5141699910163879,0.6743260197639466,0.5673825144767761
246,0.6953401217460632,0.5138949751853943,0.6743011837005615,0.5679125189781189
247,0.6956756944656373,0.5143499970436096,0.6742189168930054,0.5679525136947632
248,0.6952998399734497,0.5143749713897705,0.6741994895935058,0.568301260471344
249,0.6955755963325501,0.5144150257110596,0.6741147274971009,0.5679425001144409
250,0.6954467844963074,0.5145350098609924,0.6741952977180481,0.5678099989891052
251,0.6953036212921142,0.5150949954986572,0.6741279768943786,0.5688499808311462
252,0.6957211155891418,0.5145450234413147,0.6739577579498292,0.5687450170516968
253,0.6953903112411499,0.5138649940490723,0.6739600887298584,0.5694100260734558
254,0.6950721468925476,0.5144450068473816,0.6740667753219605,0.568832516670227
255,0.6960508732795715,0.5134699940681458,0.6738321633338928,0.5691099762916565
256,0.6956140837669372,0.5141500234603882,0.6737431163787841,0.5695474743843079
257,0.6956305060386657,0.5141100287437439,0.6736536731719971,0.5697025060653687
258,0.695644953250885,0.5142750144004822,0.6735935778617859,0.5696924924850464
259,0.6956435294151306,0.514045000076294,0.6735072493553161,0.5700474977493286
260,0.6957262539863587,0.5138099789619446,0.6736378502845765,0.5697125196456909
261,0.6959598846435547,0.5137050151824951,0.6733583250045776,0.5702924728393555
262,0.6958042593002319,0.5141900181770325,0.6735344624519348,0.5698674917221069
263,0.6957514801025391,0.5140100121498108,0.6734157800674438,0.5706524848937988
264,0.69662424325943,0.5142099857330322,0.673251461982727,0.5704299807548523
265,0.6955137419700622,0.5139150023460388,0.6732718081474304,0.5708774924278259
266,0.6964568977355957,0.5133100152015686,0.6730172681808472,0.5714575052261353
267,0.6973206696510315,0.5135800242424011,0.6731153883934021,0.5708699822425842
268,0.6968643345832825,0.5132949948310852,0.6731594958305359,0.5708550214767456
269,0.6960752539634705,0.5139874815940857,0.6728304500579834,0.5718125104904175
270,0.6963587350845337,0.5136449933052063,0.6727785143852234,0.5722450017929077
271,0.6969360284805298,0.5136449933052063,0.6727128214836121,0.5721074938774109
272,0.6969941244125366,0.5133299827575684,0.6728164820671082,0.5719850063323975
273,0.6958412442207337,0.5143200159072876,0.6729375042915344,0.5716775059700012
274,0.697652467250824,0.512594997882843,0.6728476366996765,0.5714550018310547
275,0.6965466327667237,0.5133299827575684,0.672752558708191,0.5714849829673767
276,0.6961397280693055,0.5134750008583069,0.6725216193199157,0.5727099776268005
277,0.6960428099632263,0.5138949751853943,0.6725355205535889,0.5726875066757202
278,0.6964329619407654,0.5137374997138977,0.6722980251312256,0.573324978351593
279,0.6966238412857055,0.5132049918174744,0.672284553527832,0.5730862617492676
280,0.6962975673675537,0.513979971408844,0.6722670865058898,0.573122501373291
281,0.6967426404953003,0.5139600038528442,0.6721338715553283,0.5732750296592712
282,0.6974063510894776,0.51323002576828,0.6722431259155274,0.5728175044059753
283,0.6970743398666381,0.5133900046348572,0.6720595736503601,0.573639988899231
284,0.6967404971122741,0.5130599737167358,0.6720279293060303,0.5739175081253052
285,0.6964645314216614,0.5134000182151794,0.6718753485679626,0.574352502822876
286,0.6964639620780945,0.5139449834823608,0.6719226984977722,0.574007511138916
287,0.696807954788208,0.5131850242614746,0.671852114200592,0.5737199783325195
288,0.6963509650230407,0.5137050151824951,0.6719622902870178,0.5741350054740906
289,0.6962148485183716,0.513949990272522,0.6717000532150269,0.57464998960495
290,0.6970954260826111,0.513670027256012,0.671684651851654,0.5749800205230713
291,0.697062720298767,0.5130400061607361,0.6715522122383117,0.5748174786567688
292,0.696665376663208,0.5138949751853943,0.6719313836097718,0.5745400190353394
293,0.6969956498146057,0.5132650136947632,0.6715080885887146,0.5754550099372864
294,0.6971375303268432,0.5131750106811523,0.6713663544654846,0.5753800272941589
295,0.6971333293914795,0.5126774907112122,0.6714293084144592,0.5756499767303467
296,0.697184537410736,0.5133900046348572,0.6712357692718506,0.5753024816513062
297,0.6977834057807922,0.512785017490387,0.6712127785682678,0.5754749774932861
298,0.697335859298706,0.5135300159454346,0.6711735320091248,0.5756024718284607
299,0.6965576791763306,0.5134050250053406,0.6713156795501709,0.5758012533187866
300,0.6975712251663208,0.5132849812507629,0.6709931092262268,0.5760924816131592
301,0.696830177783966,0.5133699774742126,0.6713286099433899,0.5757125020027161
302,0.6970839195251465,0.5138649940490723,0.6708767209053039,0.5761575102806091
303,0.6978580017089844,0.5134099721908569,0.6709842171669006,0.575855016708374
304,0.6988549089431763,0.5126450061798096,0.6709090189933777,0.5757550001144409
305,0.6972372941970825,0.5137925148010254,0.6709263668060302,0.5762174725532532
306,0.6974617066383362,0.513795018196106,0.6707673945426941,0.5767899751663208
307,0.697436644077301,0.5131250023841858,0.6706748361587525,0.5771175026893616
308,0.6973185391426087,0.51350998878479,0.6706649012565613,0.577085018157959
309,0.6992723617553711,0.5132949948310852,0.6707571406364441,0.576104998588562
310,0.6989867887496948,0.5135999917984009,0.6729642868041992,0.5725100040435791
311,0.6975898442268371,0.5131649971008301,0.6703936519622803,0.577269971370697
312,0.6977227582931519,0.5135049819946289,0.6703384094238282,0.5778974890708923
313,0.6986087942123413,0.5132250189781189,0.670379804611206,0.5774375200271606
314,0.6982192945480347,0.5140100121498108,0.6703236351013183,0.5773599743843079
315,0.6981583256721496,0.5130950212478638,0.6702355160713196,0.5780100226402283
316,0.697970317363739,0.5138450264930725,0.669987506866455,0.5782150030136108
317,0.697824969291687,0.5133000016212463,0.6701281390190125,0.578068733215332
318,0.6982283244132995,0.5131499767303467,0.6699826445579529,0.5784912705421448
319,0.6975616564750672,0.5132099986076355,0.6700219731330872,0.5786749720573425
320,0.6979194388389588,0.5135424733161926,0.669872263431549,0.5787749886512756
321,0.6986237916946411,0.5131149888038635,0.6698923273086548,0.5787624716758728
322,0.6984333128929138,0.5134400129318237,0.6698340177536011,0.5793175101280212
323,0.6979806537628174,0.5133299827575684,0.6696846809387207,0.5795124769210815
324,0.6981358313560486,0.5136200189590454,0.6698315949440002,0.5788825154304504
325,0.6978689398765564,0.5127500295639038,0.6698398084640503,0.5786399841308594
326,0.6981757001876832,0.5141549706459045,0.6695365424156189,0.5790824890136719
327,0.6985712156295777,0.5126450061798096,0.6694844737052917,0.57955002784729
328,0.6988955416679382,0.5134050250053406,0.6694241218566894,0.5794925093650818
329,0.6983592567443848,0.5129899978637695,0.6693719124794006,0.5796775221824646
330,0.6987744846343994,0.512939989566803,0.6693989520072937,0.579502522945404
331,0.6987124571800232,0.5131199955940247,0.6694293994903564,0.5791199803352356
332,0.6998321046829223,0.5134850144386292,0.6696271281242371,0.578885018825531
333,0.6982320389747619,0.5136650204658508,0.6691595401763916,0.5805525183677673
334,0.6993425273895264,0.5134549736976624,0.6691092867851257,0.5798875093460083
335,0.6998857522010803,0.5132399797439575,0.6691407508850098,0.5796949863433838
336,0.6985995216369629,0.5133399963378906,0.669025671005249,0.5804324746131897
337,0.6993177132606506,0.5138400197029114,0.669246187210083,0.5804062485694885
338,0.6984755825996399,0.5131750106811523,0.6690263814926147,0.5806000232696533
339,0.6989551801681518,0.5131499767303467,0.6689180936813355,0.5803149938583374
340,0.6984356188774109,0.5131800174713135,0.6688851299285888,0.5810275077819824
341,0.6987354397773743,0.5139150023460388,0.6689439377784729,0.5806475281715393
342,0.6985812134742737,0.5134000182151794,0.6687504587173462,0.5811200141906738
343,0.698363214969635,0.5141800045967102,0.6690215330123901,0.5809249877929688
344,0.6992743492126465,0.5128849744796753,0.6687514128684997,0.5818799734115601
345,0.6988647627830505,0.5134599804878235,0.6685452170372009,0.5814424753189087
346,0.69869948387146,0.5133900046348572,0.6686519036293029,0.5817275047302246
347,0.6990410199165344,0.5125749707221985,0.6683413319587708,0.5816500186920166
348,0.6989047684669495,0.5129575133323669,0.6685969653129578,0.5818650126457214
349,0.699459153175354,0.5128849744796753,0.6683972110748291,0.5826249718666077
350,0.6992637982368469,0.5135650038719177,0.668295129776001,0.5821999907493591
351,0.6995504117012024,0.5129600167274475,0.6682011232376098,0.5822675228118896
352,0.700320303440094,0.5136950016021729,0.6682262272834778,0.582485020160675
353,0.6997018523216247,0.5132399797439575,0.6681742463111877,0.5821624994277954
354,0.6990763320922851,0.5136650204658508,0.6682377023696899,0.5825225114822388
355,0.6996985878944397,0.5133450031280518,0.6681075863838196,0.5825924873352051
356,0.6995613470077514,0.5132150053977966,0.6678011264801026,0.5832725167274475
357,0.6993225111961364,0.5129950046539307,0.6678117842674255,0.5831725001335144
358,0.6996027107238769,0.5126749873161316,0.6679549722671508,0.582618772983551
359,0.699905177116394,0.5132449865341187,0.6679983339309692,0.5823649764060974
360,0.6996629867553711,0.5137150287628174,0.6676692795753479,0.583572506904602
361,0.7002821578979492,0.51323002576828,0.6675731043815613,0.5837424993515015
362,0.6997045097351074,0.5129950046539307,0.6677670636177063,0.5834050178527832
363,0.6998251628875732,0.5128600001335144,0.6675556969642639,0.5837900042533875
364,0.6995661797523498,0.51350998878479,0.6675763282775878,0.5834349989891052
365,0.7004393906593323,0.5139899849891663,0.6675770406723023,0.5834599733352661
366,0.7000324635505676,0.5133249759674072,0.6673757572174073,0.5841575264930725
367,0.6992819790840149,0.5141050219535828,0.6678265252113342,0.5837849974632263
368,0.6999364128112793,0.5140799880027771,0.6676218042373657,0.5833187699317932
369,0.7002288680076599,0.5135149955749512,0.6674838047027588,0.5837500095367432
370,0.6993162684440613,0.5140200257301331,0.6673157601356506,0.5845649838447571
371,0.6999556717872619,0.5135599970817566,0.6671854934692383,0.584888756275177
372,0.7015508399009704,0.5128099918365479,0.6671948747634888,0.5842499732971191
373,0.6993928771018982,0.5132750272750854,0.6673270888328552,0.5839099884033203
374,0.7000520963668824,0.5135599970817566,0.6671250538825989,0.5847150087356567
375,0.6999181365966797,0.5135700106620789,0.6669745736122131,0.5847449898719788
376,0.7007566103935242,0.5136600136756897,0.6670301575660705,0.5846024751663208
377,0.7003345131874085,0.513159990310669,0.6669055390357971,0.5848349928855896
378,0.7003720378875733,0.5134400129318237,0.6670605492591858,0.5846375226974487
379,0.7001686420440674,0.5141500234603882,0.6671959900856018,0.5842074751853943
380,0.7007294988632202,0.513759970664978,0.6667177767753601,0.5852937698364258
381,0.7005526723861695,0.5131800174713135,0.666569528579712,0.5855399966239929
382,0.7005703687667847,0.5137249827384949,0.6665736122131347,0.5857874751091003
383,0.7005701575279236,0.5135700106620789,0.6667706928253174,0.585342526435852
384,0.7012955856323242,0.5134900212287903,0.6664669418334961,0.5856249928474426
385,0.701225899219513,0.5125349760055542,0.6665512056350708,0.5852400064468384
386,0.7003030180931091,0.5135499835014343,0.6664958987236023,0.5853174924850464
387,0.7003772621154785,0.5141950249671936,0.6664868845939637,0.5857499837875366
388,0.7004726686477661,0.5134450197219849,0.6664095988273621,0.5862075090408325
389,0.7004227108955383,0.5142499804496765,0.6662928538322449,0.5860425233840942
390,0.7009820466041565,0.513700008392334,0.6662235603332519,0.5864599943161011
391,0.7010085320472718,0.5139099955558777,0.666109055519104,0.5866925120353699
392,0.7008229675292968,0.5128999948501587,0.6661289310455323,0.5862774848937988
393,0.7007125635147095,0.5140249729156494,0.6663465814590455,0.5860450267791748
394,0.7006456832885742,0.5137500166893005,0.6661196169853211,0.5863674879074097
395,0.7004462361335755,0.5141549706459045,0.6660100507736206,0.5867649912834167
396,0.7013314385414123,0.5132550001144409,0.6659752869606018,0.5868499875068665
397,0.7006054029464722,0.5138949751853943,0.6659427642822265,0.586870014667511
398,0.7005571269989014,0.5143100023269653,0.6661282620429992,0.5868949890136719
399,0.7013094072341919,0.5139600038528442,0.6660656590461731,0.5862150192260742
400,0.7011323804855347,0.5141249895095825,0.6658524150848388,0.5871549844741821
401,0.7018467841148377,0.5136500000953674,0.6656321792602539,0.5872874855995178
402,0.7009899711608887,0.5137150287628174,0.6658524718284607,0.5869975090026855
403,0.7011959137916565,0.5142024755477905,0.6658339238166809,0.5871524810791016
404,0.7009804773330689,0.5142549872398376,0.6658378467559815,0.5868625044822693
405,0.7009991517066956,0.514817476272583,0.6656192836761474,0.5873162746429443
406,0.7019133648872375,0.5132349729537964,0.6655064182281494,0.5879150032997131
407,0.701481656074524,0.5136550068855286,0.6653859672546387,0.5880600214004517
408,0.7014207973480224,0.5144025087356567,0.6652457060813903,0.5882174968719482
409,0.7017031254768371,0.5132650136947632,0.6653064422607422,0.5875924825668335
410,0.7019297161102295,0.5137900114059448,0.6655118222236633,0.5876824855804443
411,0.7015727648735046,0.5135599970817566,0.6655577387809753,0.5879024863243103
412,0.7018407502174377,0.5139099955558777,0.6652817158699036,0.588034987449646
413,0.7020022115707397,0.513480007648468,0.6652233338356018,0.5882212519645691
414,0.7021250276565552,0.5144000053405762,0.6652474474906921,0.5881975293159485
415,0.701996575832367,0.5133799910545349,0.6652020812034607,0.5883625149726868
416,0.7019962997436523,0.5138275027275085,0.665105314731598,0.5889700055122375
417,0.7024378809928894,0.5134900212287903,0.6650550689697265,0.5889000296592712
418,0.7022070379257203,0.5139250159263611,0.6650638971328735,0.5886300206184387
419,0.7026292910575866,0.5134199857711792,0.6649937167167663,0.5888525247573853
420,0.7024701790809631,0.5134249925613403,0.6647129993438721,0.5895025134086609
421,0.7021301412582397,0.5132849812507629,0.6650030655860901,0.5892674922943115
422,0.7020298132896423,0.5142549872398376,0.6649434175491333,0.5886150002479553
423,0.7021461968421936,0.5137799978256226,0.664697078704834,0.5891425013542175
424,0.7023553886413574,0.5139899849891663,0.6647585530281067,0.589460015296936
425,0.7021154074668884,0.5144450068473816,0.6646529664993286,0.5900650024414062
426,0.7025653824806214,0.5133699774742126,0.6646527843475342,0.5894200205802917
427,0.7026383652687073,0.5139049887657166,0.6646937537193298,0.5893650054931641
428,0.7037700247764588,0.5135350227355957,0.6648916516304016,0.5896162390708923
429,0.7029411754608155,0.5124449729919434,0.6646726508140564,0.5895975232124329
430,0.7020791521072388,0.5138850212097168,0.6644743418693543,0.5899749994277954
431,0.7076030354499817,0.5127400159835815,0.6673453702926636,0.5861775279045105
432,0.7025456328392029,0.514270007610321,0.6645389304161072,0.5895274877548218
433,0.7026022005081177,0.5142549872398376,0.6643047599792481,0.5904300212860107
434,0.7027537550926208,0.5136100053787231,0.6643342456817627,0.5899099707603455
435,0.7027534437179566,0.5141299962997437,0.6641684532165527,0.5905575156211853
436,0.7026864538192749,0.5129600167274475,0.6640910549163819,0.5905550122261047
437,0.7035683221817016,0.5140150189399719,0.6644651322364807,0.5901824831962585
438,0.7030424618721008,0.5133950114250183,0.6640692377090454,0.5904800295829773
439,0.7030349984169006,0.5140150189399719,0.6641666026115417,0.5903212428092957
440,0.7027841963768006,0.5138574838638306,0.6642130427360534,0.5907099843025208
441,0.7033169937133789,0.5131549835205078,0.6640687894821167,0.591189980506897
442,0.7040197801589966,0.5128650069236755,0.6643407168388367,0.5900899767875671
443,0.703714319229126,0.5137349963188171,0.6639616055488586,0.5906124711036682
444,0.7026847400665284,0.5143700242042542,0.6639806118011474,0.5908524990081787
445,0.704372230052948,0.5139700174331665,0.6646632404327393,0.5894200205802917
446,0.7028729619979859,0.5139549970626831,0.6638342161178589,0.5913575291633606
447,0.7033536100387573,0.5139650106430054,0.6637235903739929,0.5917724967002869
448,0.7033252310752869,0.5138000249862671,0.6635859403610229,0.5918474793434143
449,0.7035193681716919,0.5137649774551392,0.6635302014350891,0.5917450189590454
450,0.7038751091957093,0.5137699842453003,0.6634118642807006,0.5920050144195557
451,0.7030183067321777,0.5141549706459045,0.6635827641487122,0.591777503490448
452,0.7033984513282776,0.5140200257301331,0.6633194484710694,0.592442512512207
453,0.7035810551643371,0.5136950016021729,0.6638624882698059,0.5915799736976624
454,0.7035453414916992,0.5139350295066833,0.6634837703704834,0.5922300219535828
455,0.7046042823791504,0.5139449834823608,0.6632845358848571,0.5921549797058105
456,0.7041452403068542,0.5134199857711792,0.6633300466537475,0.5928699970245361
457,0.7030910611152649,0.5143749713897705,0.6634027438163758,0.5924075245857239
458,0.7039949798583984,0.5139449834823608,0.6633291988372803,0.5924075245857239
459,0.7046294655799866,0.5131400227546692,0.6632356667518615,0.5921174883842468
460,0.7037352118492126,0.5148299932479858,0.6630193109512329,0.5930175185203552
461,0.7178264298439025,0.5127900242805481,0.687277241230011,0.5697100162506104
462,0.7037659029960632,0.5139600038528442,0.6631700563430786,0.592710018157959
463,0.7038998160362243,0.5133050084114075,0.6630142488479615,0.5928450226783752
464,0.7034115195274353,0.5144050121307373,0.6632220048904419,0.5928999781608582
465,0.703782856464386,0.514460027217865,0.6628204479217529,0.5933312773704529
466,0.7050294685363769,0.5138775110244751,0.662788878440857,0.5930537581443787
467,0.7041383867263794,0.5138149857521057,0.6629220809936524,0.592960000038147
468,0.7040687737464905,0.5134124755859375,0.662829978466034,0.5932675004005432
469,0.7043102054595948,0.5139150023460388,0.6626111536026001,0.5931950211524963
470,0.7047270307540894,0.5137199759483337,0.6627707166671752,0.5930899977684021
471,0.7037898049354553,0.514394998550415,0.6627532782554626,0.5932425260543823
472,0.7038476433753967,0.5146099925041199,0.6628766031265259,0.5935500264167786
473,0.7046950087547302,0.5135800242424011,0.6623945808410645,0.593970000743866
474,0.7041163563728332,0.5138649940490723,0.6624899497032165,0.5939924716949463
475,0.7046726670265198,0.5140349864959717,0.6624305763244629,0.5937374830245972
476,0.7047627182006836,0.5133649706840515,0.6625478525161743,0.5939450263977051
477,0.704708996295929,0.5129824876785278,0.6624455952644348,0.5940449833869934
478,0.7045097341537475,0.5139949917793274,0.6625898537635804,0.5931025147438049
479,0.7045529403686523,0.5139650106430054,0.6624750156402588,0.5939674973487854
480,0.7049446272850036,0.5135225057601929,0.6620825786590576,0.594777524471283
481,0.7045817098617554,0.5135499835014343,0.662252763748169,0.5940700173377991
482,0.704175763130188,0.5141950249671936,0.6623456230163575,0.593845009803772
483,0.704979841709137,0.5131400227546692,0.6624723658561706,0.5934299826622009
484,0.7049623851776123,0.5138850212097168,0.6625785217285156,0.5941975116729736
485,0.7049711742401124,0.5139099955558777,0.6622280626296997,0.5942624807357788
486,0.7052765803337098,0.5137199759483337,0.6619777851104737,0.5948874950408936
487,0.7048800921440125,0.5138900279998779,0.6620080337524414,0.5951949954032898
488,0.7058513574600219,0.5135549902915955,0.6620296826362609,0.5947824716567993
489,0.7047309865951538,0.5140550136566162,0.6620004734992981,0.5945237278938293
490,0.7055057830810547,0.5133500099182129,0.6618785262107849,0.5951924920082092
491,0.7058316721916199,0.5131499767303467,0.6616874895095826,0.5948874950408936
492,0.7053601222038269,0.513759970664978,0.661602511882782,0.5947874784469604
493,0.7047749924659729,0.5141500234603882,0.6616531200408936,0.5952625274658203
494,0.7054954133033753,0.5145149827003479,0.6614277987480164,0.595894992351532
495,0.7057943158149719,0.5129449963569641,0.6615696740150452,0.5953524708747864
496,0.7048005185127258,0.5142449736595154,0.6615236163139343,0.5957149863243103
497,0.7058719439506531,0.5140200257301331,0.6614162430763245,0.5953350067138672
498,0.7056339812278748,0.51357501745224,0.6617366371154785,0.5957099795341492
499,0.7056455802917481,0.513979971408844,0.6615607590675354,0.5956125259399414
500,0.7060165181159973,0.5133649706840515,0.6612037162780762,0.5960249900817871
501,0.7058455514907837,0.5139899849891663,0.6614814701080323,0.5959600210189819
502,0.7063478622436523,0.5134050250053406,0.66132062292099,0.5961775183677673
503,0.7051727886199951,0.5142099857330322,0.6614312267303467,0.5960000157356262
504,0.7055296187400818,0.5131499767303467,0.66157652759552,0.5957074761390686
505,0.7055875339508056,0.513729989528656,0.6612595167160035,0.5964775085449219
506,0.7054108190536499,0.5130900144577026,0.6611992182731629,0.596348762512207
507,0.7064915623664856,0.5128700137138367,0.6611029691696167,0.5963374972343445
508,0.706185643196106,0.5133249759674072,0.6610490670204162,0.5960174798965454
509,0.7074593019485473,0.5129550099372864,0.6620247993469238,0.5952649712562561
510,0.7059693121910096,0.5130800008773804,0.661030788898468,0.5964375138282776
511,0.7064798369407653,0.5128700137138367,0.6608921389579773,0.5970799922943115
512,0.7062642650604248,0.5141500234603882,0.6608106880187988,0.5971300005912781
513,0.7061317358016967,0.5133500099182129,0.6609041800498963,0.5971875190734863
514,0.706335069656372,0.5136550068855286,0.6608372602462769,0.5972099900245667
515,0.706798728466034,0.5134649872779846,0.6607561573982239,0.59722501039505
516,0.7066126441955567,0.5129050016403198,0.6608222608566284,0.5971624851226807
517,0.706213728427887,0.5143300294876099,0.6608556714057923,0.5969150066375732
518,0.706368417263031,0.5130100250244141,0.6614234981536865,0.5959975123405457
519,0.7062083921432495,0.5133600234985352,0.6605725207328796,0.5979775190353394
520,0.7064281206130981,0.5141100287437439,0.6607283186912537,0.5972275137901306
521,0.706831579208374,0.5137699842453003,0.6605295224189758,0.5980749726295471
522,0.7075425724983215,0.5129150152206421,0.6609462976455689,0.5968350172042847
523,0.7066258215904235,0.5137850046157837,0.6605621361732483,0.5982000231742859
524,0.7075006418228149,0.5132099986076355,0.66036580991745,0.5978624820709229
525,0.7068529977798462,0.5139300227165222,0.6604684071540833,0.5977274775505066
526,0.707122838973999,0.5134950280189514,0.660206205368042,0.5982800126075745
527,0.7072163887023926,0.5130550265312195,0.6603296575546265,0.598212480545044
528,0.7067784695625305,0.513604998588562,0.6602874803543091,0.5986400246620178
529,0.70690101146698,0.5134900212287903,0.6601559734344482,0.5982450246810913
530,0.7068245558738708,0.5138850212097168,0.660552104473114,0.5978050231933594
531,0.7067298974990844,0.5135250091552734,0.6601118898391723,0.598377525806427
532,0.7066389050483703,0.5141699910163879,0.6605140738487244,0.5984424948692322
533,0.7072434697151184,0.5132449865341187,0.6603479194641113,0.5980799794197083
534,0.7067472949028015,0.5137349963188171,0.6600888490676879,0.5991950035095215
535,0.7068650679588317,0.5140249729156494,0.6602034635543823,0.5986449718475342
536,0.7071266622543335,0.5135849714279175,0.660576548576355,0.5979312658309937
537,0.7071014542579651,0.5134249925613403,0.6598723797798157,0.5996025204658508
538,0.7076147947311401,0.5136299729347229,0.6597794346809387,0.5990300178527832
539,0.7074008054733276,0.5133649706840515,0.6598102746009826,0.5991374850273132
540,0.7071637163162231,0.5143150091171265,0.6598677248954773,0.5994424819946289
541,0.7072859230041504,0.5134599804878235,0.6597392134666443,0.5992749929428101
542,0.7081576733589172,0.5131649971008301,0.6598679637908935,0.5995975136756897
543,0.70743954372406,0.5142549872398376,0.659634222984314,0.5995774865150452
544,0.7075256004333496,0.513700008392334,0.6597974405288697,0.5994374752044678
545,0.7073347043991088,0.5135499835014343,0.6597575526237488,0.5995399951934814
546,0.7076351675987244,0.51350998878479,0.6595353379249572,0.5995100140571594
547,0.7078859243392944,0.5142049789428711,0.6595648856163024,0.5993074774742126
548,0.7074700107574463,0.5137550234794617,0.6598850245475769,0.598782479763031
549,0.7078881921768189,0.5137100219726562,0.6593989381790161,0.6003825068473816
550,0.7073902525901794,0.5137199759483337,0.6595422234535218,0.599494993686676
551,0.7073871464729309,0.5136100053787231,0.6596126923561096,0.5997250080108643
552,0.7077385592460632,0.5133799910545349,0.6592258172035217,0.6004049777984619
553,0.7086429605484009,0.5126399993896484,0.6594408340454102,0.6002449989318848
554,0.7094646587371826,0.5129150152206421,0.6601773314476013,0.5983974933624268
555,0.7079166703224182,0.5130950212478638,0.6594479169845581,0.599917471408844
556,0.7076146273612977,0.5131549835205078,0.6592216844558716,0.6007050275802612
557,0.7118316359519958,0.5123050212860107,0.6665203604698181,0.5918874740600586
558,0.7077340664863586,0.5138400197029114,0.6595416393280029,0.6001250147819519
559,0.7082154049873352,0.5134850144386292,0.6591896257400512,0.6003950238227844
560,0.7079925408363342,0.5128849744796753,0.6592159328460694,0.600534975528717
561,0.7077234163284302,0.5133050084114075,0.6596101069450379,0.6000450253486633
562,0.7081394085884094,0.5139225125312805,0.6590913381576539,0.600380003452301
563,0.707853928565979,0.513450026512146,0.6589591879844665,0.6008424758911133
564,0.7083789935111999,0.5130550265312195,0.6592021598815918,0.6004024744033813
565,0.7079957580566406,0.5131250023841858,0.6588293447494507,0.6006075143814087
566,0.7084837050437928,0.5127750039100647,0.6588571672439575,0.6011049747467041
567,0.7087922067642212,0.5130249857902527,0.658953127861023,0.6004649996757507
568,0.7079922571182251,0.5125200152397156,0.6588241510391235,0.6013674736022949
569,0.7078710708618164,0.5133399963378906,0.6589067692756653,0.6009225249290466
570,0.7088084664344788,0.514045000076294,0.6590594124794006,0.6005625128746033
571,0.7084159307479858,0.512785017490387,0.6587045726776123,0.60149747133255
572,0.7088656044006347,0.5126749873161316,0.6588237466812134,0.6008700132369995
573,0.7082820858955383,0.5123000144958496,0.6585259017944336,0.6013575196266174
574,0.7085515866279603,0.5134149789810181,0.658540874004364,0.6014099717140198
575,0.7086959347724915,0.5128499865531921,0.6585040388107299,0.601467490196228
576,0.7084324631690979,0.5128350257873535,0.6588107376098633,0.600570023059845
577,0.7090951457023621,0.5130149722099304,0.6583341808319092,0.6020075082778931
578,0.7088557906150817,0.5119349956512451,0.6586096158027649,0.6015825271606445
579,0.7083806591033935,0.5128750205039978,0.6584557337760926,0.60190749168396
580,0.7091646542549134,0.512594997882843,0.6591767787933349,0.6005074977874756
581,0.7084157609939575,0.5129650235176086,0.6583367109298706,0.6019499897956848
582,0.7100036392211914,0.5126399993896484,0.6590374937057495,0.600703775882721
583,0.7087541103363038,0.512660026550293,0.6583988223075866,0.6019325256347656
584,0.709859148979187,0.5127750039100647,0.6582038602828979,0.6018049716949463
585,0.7092991461753845,0.5125625133514404,0.6583358206748963,0.6021850109100342
586,0.7097109398841858,0.5121049880981445,0.6581522388458252,0.602102518081665
587,0.7093555946350097,0.5128999948501587,0.6584243783950806,0.6014500260353088
588,0.7096241092681885,0.5122950077056885,0.6579598712921143,0.6024425029754639
589,0.7092813544273376,0.512690007686615,0.6580387220382691,0.6019424796104431
590,0.709152440071106,0.5131300091743469,0.6579883670806885,0.6025300025939941
591,0.7094991302490234,0.512690007686615,0.658370714187622,0.6019350290298462
592,0.7095215773582458,0.5126500129699707,0.6579741082191467,0.6023324728012085
593,0.7092209486961365,0.5128499865531921,0.65814990234375,0.6021550297737122
594,0.7104312057495117,0.5124825239181519,0.6581098675727844,0.6021850109100342
595,0.7090388684272766,0.5131000280380249,0.6577409782409668,0.602649986743927
596,0.7096245059967041,0.5121999979019165,0.6578218717575073,0.6024749875068665
597,0.7088270015716552,0.5128999948501587,0.658068277835846,0.6021350026130676
598,0.7090218935012818,0.5130850076675415,0.6578264074325562,0.6026837229728699
599,0.7098657212257385,0.5132899880409241,0.6577301502227784,0.6022174954414368
600,0.7098617248535156,0.5123500227928162,0.6580158805847168,0.6024799942970276
601,0.710007770061493,0.5126299858093262,0.6576499509811401,0.6021324992179871
602,0.7096127152442933,0.5123800039291382,0.6577228055000305,0.6029825210571289
603,0.7103599338531494,0.5126399993896484,0.6577073130607605,0.6022800207138062
604,0.7099456572532654,0.5118600130081177,0.6576673669815063,0.6025124788284302
605,0.709510531425476,0.5123800039291382,0.6578721685409545,0.6027399897575378
606,0.7100941696166992,0.512969970703125,0.6573676552772522,0.6032987236976624
607,0.7097748761177063,0.5120400190353394,0.6577239294052124,0.6030899882316589
608,0.7105010743141175,0.5125449895858765,0.6578472890853881,0.6028937697410583
609,0.7097923526763916,0.5128499865531921,0.6573070030212402,0.603517472743988
610,0.7099129209518432,0.5122699737548828,0.657421935081482,0.603142499923706
611,0.7102838292121887,0.5130900144577026,0.65795263671875,0.6020449995994568
612,0.7100765166282654,0.5130450129508972,0.6573353443145752,0.6034349799156189
613,0.7101540508270263,0.512594997882843,0.6571741881370544,0.6038900017738342
614,0.7098136353492737,0.5124949812889099,0.6571097579002381,0.6041774749755859
615,0.7102306303977967,0.5123800039291382,0.6573327970504761,0.603314995765686
616,0.7101608862876893,0.5122449994087219,0.6574684457778931,0.6034550070762634
617,0.7103788628578186,0.5123100280761719,0.65711234664917,0.6038424968719482
618,0.7105408744812012,0.5130450129508972,0.657078558921814,0.6041975021362305
619,0.7102309041023255,0.5123350024223328,0.6573043003082275,0.6036450266838074
620,0.7101925673484802,0.5126150250434875,0.6569860014915466,0.6042575240135193
621,0.7107209949493408,0.5118499994277954,0.6571825027465821,0.6037325263023376
622,0.7101546998023986,0.5119249820709229,0.657153314113617,0.6044350266456604
623,0.7102923545837402,0.5129250288009644,0.6567666935920715,0.6049749851226807
624,0.7110488066673278,0.5127249956130981,0.6569050827026367,0.6040675044059753
625,0.7104733862876892,0.5126000046730042,0.6570310521125794,0.6043925285339355
626,0.7100844020843506,0.5126100182533264,0.6570485019683838,0.6043524742126465
627,0.7102914776802063,0.5126150250434875,0.657254060268402,0.6033650040626526
628,0.7107429823875427,0.5120800137519836,0.6570732946395874,0.6044625043869019
629,0.7108919568061829,0.5120300054550171,0.6568697004318237,0.6048675179481506
630,0.7104632544517517,0.5120750069618225,0.6568540387153625,0.604527473449707
631,0.7107761106491088,0.5121750235557556,0.6566046714782715,0.6046674847602844
632,0.7103314456939698,0.5127149820327759,0.6566483340263367,0.6049299836158752
633,0.7103893327713012,0.5127900242805481,0.6567505478858948,0.6045299768447876
634,0.710799418926239,0.511489987373352,0.6564833779335022,0.6055625081062317
635,0.7108401622772217,0.5119500160217285,0.6566620459556579,0.6047800183296204
636,0.7107545280456543,0.5117700099945068,0.6565562376976013,0.6052024960517883
637,0.7108610963821411,0.5116549730300903,0.6565789413452149,0.6053075194358826
638,0.7114386734962463,0.5118299722671509,0.656583044052124,0.6048437356948853
639,0.7111617031097413,0.5124949812889099,0.6563799538612366,0.6052024960517883
640,0.7111951932907105,0.5115450024604797,0.6563511581420899,0.6051599979400635
641,0.7110132722854614,0.5115950107574463,0.6563263487815857,0.6056724786758423
642,0.7113990397453308,0.5114049911499023,0.6563805332183837,0.6052799820899963
643,0.711101354598999,0.5122950077056885,0.6563525342941284,0.6053450107574463
644,0.7115211939811706,0.511139988899231,0.6562879061698914,0.6057350039482117
645,0.7110744409561157,0.5121700167655945,0.6562905960083008,0.6056662797927856
646,0.7112149171829224,0.5114449858665466,0.6562239370346069,0.6056475043296814
647,0.7117401428222656,0.5111849904060364,0.6562336926460266,0.6056399941444397
648,0.7113714928627014,0.5116699934005737,0.6561835265159607,0.6057999730110168
649,0.711506420135498,0.5121049880981445,0.6562619113922119,0.6059474945068359
650,0.7122701926231384,0.5113750100135803,0.6560826663970947,0.6057199835777283
651,0.711324827671051,0.5118749737739563,0.6559437489509583,0.6056824922561646
652,0.711816695690155,0.5109850168228149,0.6562292408943177,0.605459988117218
653,0.7119492182731628,0.5118600130081177,0.6562258338928223,0.6057224869728088
654,0.7118039865493775,0.511929988861084,0.6557934293746949,0.6063337326049805
655,0.7116960124969482,0.5114099979400635,0.6560735774040222,0.6062049865722656
656,0.7114687128067017,0.511389970779419,0.6559453034400939,0.6062775254249573
657,0.7116238508224487,0.5120099782943726,0.656068826675415,0.6050475239753723
658,0.7118132438659668,0.511335015296936,0.6560589280128479,0.6059324741363525
659,0.711734926700592,0.5114750266075134,0.6562306785583496,0.6057400107383728
660,0.7119424500465393,0.5117400288581848,0.6561476178169251,0.6056774854660034
661,0.7117191767692566,0.511044979095459,0.6557298741340637,0.6064550280570984
662,0.7120821814537048,0.5118399858474731,0.6559742097854614,0.6058624982833862
663,0.712252995967865,0.5117300152778625,0.6560362725257873,0.6060724854469299
664,0.7120587482452393,0.5115950107574463,0.6556914911270142,0.6063225269317627
665,0.7131629076004028,0.5114399790763855,0.6565763430595398,0.604717493057251
666,0.711895845413208,0.5115000009536743,0.6564593949317932,0.6055625081062317
667,0.7119116439819336,0.5113400220870972,0.6555517015457153,0.6067175269126892
668,0.7122571740150452,0.5122100114822388,0.6555280313491821,0.6067324876785278
669,0.7120497245788574,0.5113700032234192,0.6554806547164918,0.6066787242889404
670,0.7122324528694153,0.5113949775695801,0.6558166661262512,0.6063399910926819
671,0.7122421822547913,0.5106649994850159,0.6554084134101867,0.6069250106811523
672,0.7127171530723572,0.5111250281333923,0.6556861424446105,0.6067025065422058
673,0.7121487193107605,0.5121849775314331,0.6557464938163757,0.606344997882843
674,0.7129216246604919,0.5111700296401978,0.6552267208099365,0.6070700287818909
675,0.7124149270057678,0.5115150213241577,0.6554158382415771,0.6071375012397766
676,0.7122295818328858,0.5119850039482117,0.6555187554359436,0.6062150001525879
677,0.7114675025939942,0.5121899843215942,0.6556413435935974,0.6067525148391724
678,0.7114928078651428,0.5118799805641174,0.6562291107177735,0.6056874990463257
679,0.7124916167259217,0.5111950039863586,0.655062430858612,0.607622504234314
680,0.7132536058425903,0.5106599926948547,0.6552470345497131,0.6070849895477295
681,0.7122916903495788,0.5119150280952454,0.6550901947021485,0.6077225208282471
682,0.7128242673873901,0.5113549828529358,0.6552510719299316,0.6074925065040588
683,0.7128822917938232,0.5114700198173523,0.6549726896286011,0.6081650257110596
684,0.7125366721153259,0.5116950273513794,0.6551890225410462,0.6071774959564209
685,0.7127934145927429,0.5115699768066406,0.6551868219375611,0.6075325012207031
686,0.7125797266960144,0.5109949707984924,0.6558083205223083,0.606767475605011
687,0.7126312499046326,0.5113850235939026,0.6551132168769837,0.6077675223350525
688,0.7130446124076844,0.5114949941635132,0.655107714176178,0.6071724891662598
689,0.7123756618499756,0.5108199715614319,0.6551393165588378,0.607479989528656
690,0.7130556378364563,0.5117949843406677,0.6549912552833557,0.6075649857521057
691,0.7139957427978516,0.5117449760437012,0.6555466022491455,0.6070125102996826
692,0.7128337469100953,0.5113499760627747,0.6550609140396119,0.6076275110244751
693,0.7130129356384277,0.5110650062561035,0.655366443157196,0.6070225238800049
694,0.7133659582138061,0.5117549896240234,0.6549245676994324,0.6076775193214417
695,0.7125088815689087,0.511680006980896,0.6551704692840576,0.6073912382125854
696,0.7128038854598999,0.511430025100708,0.6548699626922607,0.607795000076294
697,0.7131360402107239,0.5112550258636475,0.6547365865707397,0.6078575253486633
698,0.7127628183364868,0.5118749737739563,0.6547836499214172,0.6080374717712402
699,0.7127827649116516,0.5114449858665466,0.6549797215461731,0.6078749895095825
700,0.713345841884613,0.5113450288772583,0.6546800470352173,0.6078475117683411
701,0.7130850529670716,0.5112800002098083,0.6545652704238891,0.608183741569519
702,0.713361494064331,0.5109000205993652,0.6546509757041931,0.6080849766731262
703,0.7124089736938477,0.5111650228500366,0.6554494075775147,0.6067649722099304
704,0.7195351023674011,0.5092499852180481,0.6658720364570617,0.596348762512207
705,0.713253514289856,0.5115000009536743,0.6546314511299133,0.6080049872398376
706,0.7133657746315002,0.5113300085067749,0.6545146241188049,0.6083549857139587
707,0.7136957597732544,0.5119100213050842,0.6549086403846741,0.6079350113868713
708,0.7133076887130737,0.5117449760437012,0.6547977738380432,0.6079699993133545
709,0.712810830116272,0.5116850137710571,0.6548624973297119,0.607872486114502
710,0.7133842396736145,0.5120350122451782,0.6544806394577026,0.6082975268363953
711,0.7131135606765747,0.5115699768066406,0.6543195171356201,0.6091349720954895
712,0.7133214454650879,0.5113599896430969,0.654323926448822,0.608834981918335
713,0.7137235107421875,0.5117849707603455,0.654503761768341,0.6081975102424622
714,0.7134053301811218,0.5115150213241577,0.6544470701217652,0.6086350083351135
715,0.7136320557594299,0.511430025100708,0.6543678574562073,0.6086475253105164
716,0.7134093775749206,0.5116450190544128,0.6544982471466064,0.6083549857139587
717,0.7137728567123414,0.5115399956703186,0.6544844255447387,0.6086775064468384
718,0.7138363738059997,0.5113199949264526,0.6543367805480957,0.6083449721336365
719,0.7135939407348633,0.5109649896621704,0.6543152484893798,0.6086762547492981
720,0.7134855532646179,0.5115799903869629,0.6541981735229492,0.6090024709701538
721,0.7140730619430542,0.5119500160217285,0.6542883672714234,0.6088225245475769
722,0.7133950123786926,0.5111200213432312,0.6542560057640076,0.6086074709892273
723,0.7140604662895202,0.5109050273895264,0.6543031725883484,0.6090825200080872
724,0.7135204653739929,0.5107799768447876,0.654064257144928,0.6086724996566772
725,0.7139714679718018,0.5107849836349487,0.6539520950317382,0.6090499758720398
726,0.7138900904655456,0.511680006980896,0.6542415685653686,0.6091150045394897
727,0.7138367800712585,0.5119850039482117,0.6540055179595947,0.6095275282859802
728,0.7140611062049865,0.510919988155365,0.6541697731018067,0.6089850068092346
729,0.7143629083633423,0.5113049745559692,0.654023829460144,0.60930997133255
730,0.7142972574234009,0.5115650296211243,0.6540606064796448,0.6094424724578857
731,0.7138761887550354,0.5115450024604797,0.6539396085739135,0.6091675162315369
732,0.7141753964424133,0.5113099813461304,0.6538436846733093,0.609375
733,0.7142522625923157,0.5115150213241577,0.654013578414917,0.609529972076416
734,0.7143289542198181,0.5111175179481506,0.6540337371826171,0.6093475222587585
735,0.7143248338699341,0.5112000107765198,0.6539890375137329,0.6093974709510803
736,0.715323434829712,0.5121750235557556,0.6549273252487182,0.6072725057601929
737,0.7144283766746521,0.5114175081253052,0.6537732248306274,0.6096224784851074
738,0.7143117446899414,0.5112299919128418,0.6537609882354737,0.6096324920654297
739,0.7143466486930847,0.5116699934005737,0.6535317535400391,0.6104224920272827
740,0.7141223006248474,0.5118899941444397,0.6537685108184814,0.6095525026321411
741,0.7149734287261963,0.5108050107955933,0.6536907711029053,0.6099824905395508
742,0.714186553478241,0.5111950039863586,0.6537490787506104,0.6097000241279602
743,0.7147585844993591,0.5110800266265869,0.6534557123184204,0.6103175282478333
744,0.7148202261924743,0.5112050175666809,0.6535963101387023,0.6101300120353699
745,0.7148172979354859,0.5111100077629089,0.6536685056686401,0.6098949909210205
746,0.7147133197784424,0.5111824870109558,0.6534259552955628,0.6103274822235107
747,0.7146323852539063,0.510699987411499,0.6536108717918396,0.6104549765586853
748,0.715329921722412,0.5118150115013123,0.6535180463790894,0.6100950241088867
749,0.7142413024902343,0.5113999843597412,0.6543753867149353,0.6090474724769592
750,0.7146193585395813,0.511834979057312,0.6532276291847229,0.6104124784469604
751,0.7162230906486511,0.5107849836349487,0.6544594597816468,0.6087024807929993
752,0.7146759247779846,0.5112599730491638,0.6533638978004456,0.610337495803833
753,0.7147821660041809,0.5118550062179565,0.6534291939735413,0.6102324724197388
754,0.7148195700645447,0.5116649866104126,0.6534098839759827,0.6101199984550476
755,0.7151257424354553,0.5110549926757812,0.6535244846343994,0.6098200082778931
756,0.71446244764328,0.5115500092506409,0.6536295318603516,0.6101474761962891
757,0.715435564994812,0.5114150047302246,0.6532519216537476,0.6104199886322021
758,0.7145911087989807,0.5118399858474731,0.6532341833114624,0.6101750135421753
759,0.714950912475586,0.5117200016975403,0.6532557077407837,0.6103950142860413
760,0.7145200099945068,0.511489987373352,0.6534227614402771,0.6103000044822693
761,0.7146519079208374,0.5112299919128418,0.6533944959640503,0.6103037595748901
762,0.7149157733917236,0.5117700099945068,0.6532246527671814,0.6105049848556519
763,0.7156612377166748,0.5120599865913391,0.6531603350639343,0.6109774708747864
764,0.7150279383659363,0.5117200016975403,0.6527927026748658,0.611377477645874
765,0.7149549961090088,0.5120450258255005,0.6532339625358582,0.6107749938964844
766,0.7155929918289184,0.5114499926567078,0.6532945156097412,0.6105924844741821
767,0.7146499142646789,0.5119649767875671,0.6536009392738342,0.6101974844932556
768,0.7161434383392334,0.5116900205612183,0.6532111625671386,0.6105449795722961
769,0.7146097950935364,0.5122100114822388,0.6530476412773132,0.6110600233078003
770,0.7148525710105896,0.5114499926567078,0.6530877251625061,0.6108174920082092
771,0.7153163142204285,0.51180499792099,0.6529835729599,0.6109275221824646
772,0.7156512336730957,0.5115950107574463,0.6527877788543701,0.6112499833106995
773,0.7152141156196594,0.511584997177124,0.6530367221832275,0.6110799908638
774,0.7152919678688049,0.5117250084877014,0.6528757181167603,0.611472487449646
775,0.7157085757255555,0.5111349821090698,0.652767930984497,0.6112449765205383
776,0.7159645209312439,0.5117049813270569,0.6528106598854065,0.611537516117096
777,0.7165377621650696,0.5113750100135803,0.6532104735374451,0.6106324791908264
778,0.7155750422477722,0.5108050107955933,0.6529238724708557,0.610752522945404
779,0.715670509338379,0.5114949941635132,0.6527861785888672,0.6111050248146057
780,0.7157350039482117,0.5116850137710571,0.65266073179245,0.6117500066757202
781,0.7162176713943481,0.5113199949264526,0.6528422560691833,0.6116587519645691
782,0.7152477159500122,0.5111650228500366,0.6530975189208984,0.610682487487793
783,0.71584974193573,0.5118749737739563,0.6529499535560608,0.6107349991798401
784,0.7154547910690308,0.5112950205802917,0.6527295274734497,0.6118149757385254
785,0.715696551322937,0.5115575194358826,0.6528962802886963,0.6112899780273438
786,0.7155431661605834,0.511139988899231,0.6525703287124633,0.6116650104522705
787,0.7161486797332763,0.5114200115203857,0.6527747645378112,0.6114087700843811
788,0.7151815376281738,0.5114750266075134,0.6530229420661926,0.6112849712371826
789,0.7157746295928955,0.5115349888801575,0.6525878663063049,0.6120374798774719
790,0.7160237579345703,0.511584997177124,0.6524751195907593,0.6119624972343445
791,0.7159982171058655,0.5116050243377686,0.6524824318885803,0.6118124723434448
792,0.7160153546333313,0.5109300017356873,0.6523480725288391,0.6120625138282776
793,0.7161558246612549,0.5110599994659424,0.6522716946601868,0.6119599938392639
794,0.7159231653213501,0.5110599994659424,0.6526512103080749,0.6116175055503845
795,0.7169051208496093,0.5112450122833252,0.6526793570518493,0.6114100217819214
796,0.7160575923919678,0.5113074779510498,0.6526551384925843,0.6117412447929382
797,0.7161708598136902,0.5121300220489502,0.6524596333503723,0.6116474866867065
798,0.7159993185997009,0.5121700167655945,0.6521243977546692,0.6122549772262573
799,0.7157017097473145,0.5116950273513794,0.6526942019462585,0.6114000082015991
800,0.7160809888839722,0.5112749934196472,0.6521946430206299,0.6121349930763245
801,0.7160129356384277,0.5112800002098083,0.652282720565796,0.6125274896621704
802,0.7159903559684754,0.5117200016975403,0.6523276705741883,0.6121249794960022
803,0.716067982673645,0.5112299919128418,0.6519977626800537,0.6127200126647949
804,0.7162265386581421,0.5123000144958496,0.65203706407547,0.6127949953079224
805,0.7161253957748414,0.5117350220680237,0.6522268424034119,0.6128324866294861
806,0.7162401371002197,0.5111200213432312,0.6524416036605835,0.6118724942207336
807,0.7158040223121643,0.5122699737548828,0.6523636112213135,0.6124475002288818
808,0.7166214461326599,0.51180499792099,0.651961925983429,0.6124849915504456
809,0.7159859580993653,0.5118600130081177,0.6521471710205078,0.612202525138855
810,0.7164525485038757,0.511389970779419,0.6523491101264953,0.6122825145721436
811,0.7166981806755066,0.5115000009536743,0.6528405327796936,0.6118475198745728
812,0.7163850946426391,0.5118950009346008,0.6519848661422729,0.6124650239944458
813,0.716360791683197,0.5119249820709229,0.6521539402008056,0.6123650074005127
814,0.7168380012512207,0.5117350220680237,0.6520114169120789,0.6126949787139893
815,0.7162809662818909,0.5121949911117554,0.6519719266891479,0.6125362515449524
816,0.7164616861343384,0.5117200016975403,0.6518287320137024,0.6129437685012817
817,0.7164404602050781,0.5114549994468689,0.6528838782310485,0.611377477645874
818,0.7170123624801635,0.5122100114822388,0.6519516897201538,0.6128824949264526
819,0.7162104392051697,0.5117149949073792,0.6519137024879456,0.6127899885177612
820,0.7168777303695679,0.51163250207901,0.6522151694297791,0.6120874881744385
821,0.7159855909347534,0.5111550092697144,0.6521718554496765,0.6125550270080566
822,0.7173689885139465,0.5114499926567078,0.6517832503318787,0.6132599711418152
823,0.717152940750122,0.5113099813461304,0.6520671639442444,0.6122787594795227
824,0.7165623030662537,0.5115100145339966,0.6517494788169861,0.613138735294342
825,0.7168439536094665,0.512172520160675,0.6518444752693177,0.6130024790763855
826,0.7170025649070739,0.5120000243186951,0.6515719003677368,0.6134250164031982
827,0.7167978773117065,0.5119249820709229,0.6519737906455993,0.6130350232124329
828,0.7163961057662964,0.512440025806427,0.6518257174491883,0.6134275197982788
829,0.7168868536949158,0.5112249851226807,0.6515592956542968,0.6136599779129028
830,0.7168519635200501,0.511680006980896,0.6516400609016418,0.6132799983024597
831,0.7172608065605164,0.5110399723052979,0.6515511784553528,0.6135025024414062
832,0.7168955669403076,0.5115299820899963,0.6515070700645447,0.6137800216674805
833,0.7171225533485412,0.5122100114822388,0.6514771032333374,0.6136624813079834
834,0.7172867751121521,0.511650025844574,0.6518258295059204,0.6128450036048889
835,0.7168644576072692,0.5119600296020508,0.6517303423881531,0.6130937337875366
836,0.7172723278999329,0.5118600130081177,0.6516370368003845,0.6133524775505066
837,0.7171892638206482,0.5116050243377686,0.6517291955947876,0.6136025190353394
838,0.717323736667633,0.511584997177124,0.6510990009307861,0.6142849922180176
839,0.7178071031570434,0.5120149850845337,0.6514525861740113,0.6136362552642822
